Data length:          7306
Time(min)    Intensity(mv)
  0.0000          -0.9910
  0.0017          -1.0290
  0.0033          -1.0280
  0.0050          -1.4170
  0.0067          -1.3490
  0.0083          -1.3830
  0.0100          -1.1940
  0.0117          -1.2010
  0.0133          -1.2580
  0.0150          -1.3210
  0.0167          -1.5730
  0.0183          -1.3650
  0.0200          -1.3560
  0.0217          -0.9910
  0.0233          -0.9390
  0.0250          -1.0400
  0.0267          -1.0970
  0.0283          -1.4340
  0.0300          -1.4410
  0.0317          -1.5220
  0.0333          -1.2770
  0.0350          -1.2090
  0.0367          -1.2250
  0.0383          -1.3120
  0.0400          -1.3630
  0.0417          -1.2540
  0.0433          -1.1190
  0.0450          -1.0970
  0.0467          -1.1730
  0.0483          -1.1110
  0.0500          -1.2550
  0.0517          -1.2510
  0.0533          -1.3230
  0.0550          -1.5130
  0.0567          -1.3050
  0.0583          -1.2360
  0.0600          -1.0560
  0.0617          -0.8550
  0.0633          -0.9760
  0.0650          -1.0750
  0.0667          -1.3450
  0.0683          -1.2550
  0.0700          -1.3170
  0.0717          -1.2030
  0.0733          -1.1730
  0.0750          -1.3650
  0.0767          -1.3380
  0.0783          -1.3690
  0.0800          -1.1830
  0.0817          -1.2160
  0.0833          -1.0220
  0.0850          -1.0660
  0.0867          -1.1780
  0.0883          -1.1640
  0.0900          -1.3910
  0.0917          -1.3830
  0.0933          -1.3680
  0.0950          -1.1590
  0.0967          -1.0700
  0.0983          -1.2280
  0.1000          -1.2120
  0.1017          -1.3510
  0.1033          -1.1970
  0.1050          -0.9990
  0.1067          -1.0440
  0.1083          -1.0840
  0.1100          -1.3810
  0.1117          -1.4200
  0.1133          -1.5160
  0.1150          -1.3970
  0.1167          -1.3000
  0.1183          -1.2210
  0.1200          -1.0030
  0.1217          -1.0310
  0.1233          -0.9080
  0.1250          -1.1250
  0.1267          -1.1900
  0.1283          -1.3870
  0.1300          -1.2240
  0.1317          -1.2850
  0.1333          -1.1430
  0.1350          -1.1340
  0.1367          -1.3930
  0.1383          -1.3370
  0.1400          -1.3890
  0.1417          -1.0840
  0.1433          -0.9660
  0.1450          -0.9560
  0.1467          -1.0350
  0.1483          -1.4070
  0.1500          -1.5240
  0.1517          -1.5900
  0.1533          -1.5170
  0.1550          -1.4240
  0.1567          -1.2420
  0.1583          -1.2170
  0.1600          -1.3950
  0.1617          -1.3810
  0.1633          -1.2750
  0.1650          -1.1870
  0.1667          -1.0170
  0.1683          -1.0070
  0.1700          -1.1920
  0.1717          -1.2620
  0.1733          -1.3110
  0.1750          -1.5490
  0.1767          -1.4660
  0.1783          -1.3950
  0.1800          -1.2690
  0.1817          -1.0570
  0.1833          -1.0320
  0.1850          -0.9380
  0.1867          -1.1260
  0.1883          -1.1750
  0.1900          -1.3720
  0.1917          -1.4370
  0.1933          -1.3420
  0.1950          -1.3550
  0.1967          -1.2750
  0.1983          -1.4560
  0.2000          -1.2670
  0.2017          -1.2070
  0.2033          -1.0980
  0.2050          -0.9440
  0.2067          -1.2000
  0.2083          -1.1560
  0.2100          -1.4060
  0.2117          -1.4730
  0.2133          -1.3970
  0.2150          -1.4710
  0.2167          -1.3130
  0.2183          -1.3900
  0.2200          -1.2930
  0.2217          -1.1930
  0.2233          -1.1400
  0.2250          -1.1410
  0.2267          -1.2220
  0.2283          -1.1430
  0.2300          -1.2390
  0.2317          -1.2290
  0.2333          -1.2620
  0.2350          -1.3740
  0.2367          -1.5630
  0.2383          -1.5140
  0.2400          -1.3740
  0.2417          -1.2570
  0.2433          -0.9070
  0.2450          -0.9950
  0.2467          -1.0870
  0.2483          -1.2390
  0.2500          -1.3010
  0.2517          -1.3570
  0.2533          -1.3140
  0.2550          -1.2240
  0.2567          -1.3840
  0.2583          -1.2690
  0.2600          -1.3150
  0.2617          -1.2410
  0.2633          -0.9570
  0.2650          -0.9610
  0.2667          -0.9280
  0.2683          -1.2060
  0.2700          -1.3030
  0.2717          -1.4820
  0.2733          -1.5780
  0.2750          -1.2960
  0.2767          -1.3600
  0.2783          -1.2100
  0.2800          -1.3480
  0.2817          -1.3420
  0.2833          -1.3930
  0.2850          -1.3040
  0.2867          -1.3190
  0.2883          -1.4190
  0.2900          -1.1960
  0.2917          -1.2860
  0.2933          -1.2170
  0.2950          -1.3620
  0.2967          -1.4050
  0.2983          -1.4070
  0.3000          -1.1790
  0.3017          -1.0920
  0.3033          -1.0660
  0.3050          -0.9460
  0.3067          -1.3610
  0.3083          -1.2590
  0.3100          -1.4300
  0.3117          -1.3680
  0.3133          -1.2110
  0.3150          -1.2260
  0.3167          -1.1970
  0.3183          -1.4790
  0.3200          -1.3420
  0.3217          -1.3400
  0.3233          -1.1630
  0.3250          -0.8720
  0.3267          -1.0140
  0.3283          -1.0860
  0.3300          -1.2980
  0.3317          -1.5500
  0.3333          -1.4950
  0.3350          -1.4480
  0.3367          -1.1310
  0.3383          -1.1190
  0.3400          -0.9330
  0.3417          -1.0020
  0.3433          -0.9960
  0.3450          -1.1070
  0.3467          -1.1840
  0.3483          -1.4040
  0.3500          -1.5120
  0.3517          -1.3530
  0.3533          -1.4400
  0.3550          -1.2900
  0.3567          -1.5130
  0.3583          -1.3820
  0.3600          -1.2430
  0.3617          -1.0310
  0.3633          -0.7420
  0.3650          -0.9700
  0.3667          -0.9710
  0.3683          -1.4670
  0.3700          -1.5940
  0.3717          -1.6580
  0.3733          -1.6340
  0.3750          -1.3320
  0.3767          -1.1990
  0.3783          -1.0720
  0.3800          -1.2120
  0.3817          -1.1140
  0.3833          -1.0340
  0.3850          -1.1020
  0.3867          -0.9030
  0.3883          -1.1450
  0.3900          -1.3560
  0.3917          -1.6090
  0.3933          -1.6950
  0.3950          -1.5090
  0.3967          -1.4310
  0.3983          -1.0280
  0.4000          -1.0370
  0.4017          -0.8330
  0.4033          -0.9160
  0.4050          -0.9490
  0.4067          -1.1230
  0.4083          -1.2180
  0.4100          -1.2360
  0.4117          -1.3220
  0.4133          -1.2760
  0.4150          -1.3490
  0.4167          -1.3220
  0.4183          -1.4780
  0.4200          -1.3480
  0.4217          -1.1820
  0.4233          -0.9980
  0.4250          -0.7050
  0.4267          -0.9780
  0.4283          -1.0910
  0.4300          -1.5010
  0.4317          -1.5590
  0.4333          -1.4810
  0.4350          -1.4070
  0.4367          -1.2140
  0.4383          -1.1920
  0.4400          -1.0280
  0.4417          -1.1110
  0.4433          -1.1550
  0.4450          -0.9680
  0.4467          -1.1430
  0.4483          -1.0470
  0.4500          -1.0950
  0.4517          -1.3810
  0.4533          -1.5590
  0.4550          -1.6150
  0.4567          -1.3630
  0.4583          -1.2360
  0.4600          -0.9110
  0.4617          -1.0790
  0.4633          -1.0130
  0.4650          -1.1000
  0.4667          -1.2050
  0.4683          -1.3730
  0.4700          -1.4710
  0.4717          -1.4300
  0.4733          -1.4430
  0.4750          -1.1030
  0.4767          -1.4050
  0.4783          -1.3410
  0.4800          -1.3520
  0.4817          -1.2700
  0.4833          -1.0020
  0.4850          -1.0470
  0.4867          -1.0620
  0.4883          -1.3020
  0.4900          -1.4530
  0.4917          -1.6370
  0.4933          -1.5540
  0.4950          -1.3790
  0.4967          -1.2240
  0.4983          -1.2040
  0.5000          -1.1380
  0.5017          -1.1400
  0.5033          -1.1390
  0.5050          -1.1980
  0.5067          -1.0020
  0.5083          -1.2280
  0.5100          -1.2710
  0.5117          -1.4010
  0.5133          -1.6530
  0.5150          -1.5240
  0.5167          -1.4970
  0.5183          -1.0930
  0.5200          -0.8600
  0.5217          -0.6430
  0.5233          -0.7370
  0.5250          -0.8980
  0.5267          -1.1520
  0.5283          -1.4320
  0.5300          -1.4140
  0.5317          -1.5630
  0.5333          -1.3640
  0.5350          -1.2160
  0.5367          -1.0220
  0.5383          -1.2740
  0.5400          -1.2120
  0.5417          -1.3170
  0.5433          -1.3830
  0.5450          -0.9530
  0.5467          -1.0000
  0.5483          -1.0640
  0.5500          -1.3620
  0.5517          -1.5190
  0.5533          -1.6090
  0.5550          -1.5010
  0.5567          -1.0970
  0.5583          -1.0850
  0.5600          -1.0820
  0.5617          -1.1740
  0.5633          -1.2810
  0.5650          -1.3020
  0.5667          -1.4150
  0.5683          -1.1080
  0.5700          -1.2140
  0.5717          -1.3550
  0.5733          -1.2890
  0.5750          -1.6060
  0.5767          -1.4500
  0.5783          -1.3420
  0.5800          -1.1940
  0.5817          -1.1410
  0.5833          -1.1010
  0.5850          -1.2140
  0.5867          -1.4650
  0.5883          -1.3900
  0.5900          -1.4240
  0.5917          -1.1620
  0.5933          -1.0750
  0.5950          -0.9650
  0.5967          -0.9740
  0.5983          -1.0630
  0.6000          -0.9750
  0.6017          -1.1860
  0.6033          -1.1780
  0.6050          -1.1980
  0.6067          -1.0430
  0.6083          -1.1200
  0.6100          -1.2320
  0.6117          -1.5330
  0.6133          -1.6670
  0.6150          -1.5150
  0.6167          -1.4330
  0.6183          -0.9730
  0.6200          -0.9170
  0.6217          -1.0180
  0.6233          -1.1010
  0.6250          -1.4090
  0.6267          -1.2310
  0.6283          -1.2510
  0.6300          -1.0830
  0.6317          -1.1170
  0.6333          -1.3500
  0.6350          -1.3680
  0.6367          -1.4510
  0.6383          -1.1380
  0.6400          -1.1050
  0.6417          -0.7690
  0.6433          -0.6790
  0.6450          -0.7090
  0.6467          -0.6380
  0.6483          -0.8270
  0.6500          -0.7130
  0.6517          -0.7890
  0.6533          -0.7760
  0.6550          -0.8290
  0.6567          -0.8160
  0.6583          -0.8870
  0.6600          -0.8870
  0.6617          -0.5360
  0.6633          -0.5840
  0.6650          -0.4180
  0.6667          -0.5350
  0.6683          -1.0990
  0.6700          -1.1040
  0.6717          -1.2520
  0.6733          -1.0260
  0.6750          -0.6820
  0.6767          -0.4440
  0.6783          -0.3390
  0.6800          -0.3900
  0.6817          -0.2120
  0.6833          -0.2760
  0.6850           0.0360
  0.6867          -0.0620
  0.6883          -0.1360
  0.6900          -0.2860
  0.6917          -0.3740
  0.6933          -0.4730
  0.6950          -0.7460
  0.6967          -0.6310
  0.6983          -0.7630
  0.7000          -0.3580
  0.7017          -0.4860
  0.7033          -0.4840
  0.7050          -0.3660
  0.7067          -0.0350
  0.7083           1.3700
  0.7100           3.0130
  0.7117           4.6870
  0.7133           5.4540
  0.7150           5.0340
  0.7167           3.8180
  0.7183           2.4470
  0.7200           1.6730
  0.7217           1.0470
  0.7233           0.8630
  0.7250           0.5910
  0.7267           0.1920
  0.7283          -0.2780
  0.7300          -0.9110
  0.7317          -1.0420
  0.7333          -1.2290
  0.7350          -0.9480
  0.7367          -0.9680
  0.7383          -1.1010
  0.7400          -0.9400
  0.7417          -1.1680
  0.7433          -0.8570
  0.7450          -0.9380
  0.7467          -0.9030
  0.7483          -0.9270
  0.7500          -1.1240
  0.7517          -0.8460
  0.7533          -0.8520
  0.7550          -0.4490
  0.7567          -0.3160
  0.7583          -0.2070
  0.7600          -0.1150
  0.7617          -0.2230
  0.7633          -0.3420
  0.7650          -0.6920
  0.7667          -0.7860
  0.7683          -1.0710
  0.7700          -1.1200
  0.7717          -1.2710
  0.7733          -1.0640
  0.7750          -1.0860
  0.7767          -1.1130
  0.7783          -1.0660
  0.7800          -1.2360
  0.7817          -1.1130
  0.7833          -0.9400
  0.7850          -0.8190
  0.7867          -0.7840
  0.7883          -1.0550
  0.7900          -1.1840
  0.7917          -1.4800
  0.7933          -1.4300
  0.7950          -1.3040
  0.7967          -1.0770
  0.7983          -0.9310
  0.8000          -0.9410
  0.8017          -0.8000
  0.8033          -1.0000
  0.8050          -0.8920
  0.8067          -0.9600
  0.8083          -0.9850
  0.8100          -0.9850
  0.8117          -1.0370
  0.8133          -1.0860
  0.8150          -1.2240
  0.8167          -1.1400
  0.8183          -1.1650
  0.8200          -0.8930
  0.8217          -0.7930
  0.8233          -0.8000
  0.8250          -0.7000
  0.8267          -0.5370
  0.8283          -0.3180
  0.8300          -0.0260
  0.8317           0.4210
  0.8333           0.5450
  0.8350           0.8800
  0.8367           0.8020
  0.8383           0.3980
  0.8400           0.3150
  0.8417           0.0100
  0.8433          -0.0080
  0.8450          -0.0040
  0.8467          -0.1340
  0.8483          -0.2670
  0.8500          -0.6020
  0.8517          -0.6920
  0.8533          -0.8560
  0.8550          -0.8030
  0.8567          -0.6280
  0.8583          -0.7030
  0.8600          -0.6080
  0.8617          -0.8840
  0.8633          -0.9380
  0.8650          -0.9600
  0.8667          -0.8670
  0.8683          -0.8330
  0.8700          -0.8390
  0.8717          -0.8780
  0.8733          -1.2360
  0.8750          -1.2570
  0.8767          -1.1540
  0.8783          -0.9100
  0.8800          -0.6140
  0.8817          -0.5730
  0.8833          -0.6630
  0.8850          -0.9140
  0.8867          -1.0870
  0.8883          -0.9670
  0.8900          -0.9820
  0.8917          -0.9740
  0.8933          -1.0490
  0.8950          -1.1080
  0.8967          -1.4360
  0.8983          -1.2220
  0.9000          -1.0390
  0.9017          -0.7760
  0.9033          -0.4590
  0.9050          -0.5760
  0.9067          -0.5930
  0.9083          -0.8120
  0.9100          -0.9260
  0.9117          -1.3170
  0.9133          -1.2580
  0.9150          -1.2610
  0.9167          -1.0200
  0.9183          -0.6230
  0.9200          -0.5780
  0.9217          -0.5710
  0.9233          -0.9320
  0.9250          -1.0070
  0.9267          -1.0760
  0.9283          -0.9540
  0.9300          -0.7990
  0.9317          -0.9790
  0.9333          -1.0940
  0.9350          -1.2460
  0.9367          -1.2610
  0.9383          -1.0960
  0.9400          -0.8170
  0.9417          -0.6200
  0.9433          -0.6870
  0.9450          -0.7150
  0.9467          -1.1720
  0.9483          -1.2460
  0.9500          -1.1250
  0.9517          -1.1050
  0.9533          -0.9500
  0.9550          -1.1170
  0.9567          -1.1300
  0.9583          -1.1990
  0.9600          -1.1730
  0.9617          -0.9830
  0.9633          -0.8850
  0.9650          -0.7660
  0.9667          -0.9420
  0.9683          -1.0170
  0.9700          -1.2790
  0.9717          -1.4020
  0.9733          -1.6230
  0.9750          -1.5350
  0.9767          -1.3770
  0.9783          -1.1410
  0.9800          -0.7400
  0.9817          -0.8500
  0.9833          -0.7220
  0.9850          -0.9350
  0.9867          -1.0100
  0.9883          -1.0470
  0.9900          -1.1040
  0.9917          -1.0370
  0.9933          -1.3530
  0.9950          -1.3920
  0.9967          -1.4880
  0.9983          -1.2580
  1.0000          -0.8670
  1.0017          -0.6680
  1.0033          -0.4440
  1.0050          -0.7610
  1.0067          -0.8930
  1.0083          -1.3380
  1.0100          -1.5810
  1.0117          -1.4450
  1.0133          -1.4740
  1.0150          -1.1700
  1.0167          -1.0830
  1.0183          -1.0820
  1.0200          -1.0550
  1.0217          -0.9270
  1.0233          -0.7490
  1.0250          -0.7560
  1.0267          -0.6830
  1.0283          -1.0570
  1.0300          -1.2840
  1.0317          -1.4580
  1.0333          -1.4500
  1.0350          -1.3040
  1.0367          -1.2280
  1.0383          -1.0130
  1.0400          -1.1080
  1.0417          -0.9840
  1.0433          -1.1880
  1.0450          -1.1740
  1.0467          -1.0690
  1.0483          -1.0770
  1.0500          -0.8620
  1.0517          -0.9690
  1.0533          -0.9020
  1.0550          -1.0430
  1.0567          -0.8200
  1.0583          -0.6350
  1.0600          -0.5100
  1.0617          -0.0120
  1.0633          -0.0240
  1.0650           0.0970
  1.0667          -0.2190
  1.0683          -0.4700
  1.0700          -0.7010
  1.0717          -0.8230
  1.0733          -0.6740
  1.0750          -0.9260
  1.0767          -0.8640
  1.0783          -1.0120
  1.0800          -0.8110
  1.0817          -0.3640
  1.0833           0.3860
  1.0850           2.8380
  1.0867           8.7950
  1.0883          22.4380
  1.0900          46.9750
  1.0917          83.9830
  1.0933         131.5660
  1.0950         182.7960
  1.0967         225.8530
  1.0983         247.5180
  1.1000         239.6680
  1.1017         204.8770
  1.1033         158.1820
  1.1050         114.1080
  1.1067          81.8310
  1.1083          61.1900
  1.1100          46.9700
  1.1117          35.9910
  1.1133          27.1170
  1.1150          20.0600
  1.1167          14.6480
  1.1183          10.4690
  1.1200           7.4950
  1.1217           4.8780
  1.1233           3.1390
  1.1250           1.7000
  1.1267           0.7110
  1.1283          -0.1580
  1.1300          -0.5890
  1.1317          -0.6300
  1.1333          -0.8910
  1.1350          -0.4550
  1.1367          -0.8430
  1.1383          -0.9560
  1.1400          -1.0300
  1.1417          -1.0490
  1.1433          -0.6810
  1.1450          -0.4140
  1.1467          -0.2340
  1.1483          -0.4560
  1.1500          -0.4800
  1.1517          -0.6740
  1.1533          -0.4730
  1.1550          -0.2460
  1.1567          -0.0860
  1.1583           0.0130
  1.1600          -0.1690
  1.1617          -0.2550
  1.1633          -0.5830
  1.1650          -0.7560
  1.1667          -0.6490
  1.1683          -0.7770
  1.1700          -0.7620
  1.1717          -1.1130
  1.1733          -1.4530
  1.1750          -1.5720
  1.1767          -1.5720
  1.1783          -1.1140
  1.1800          -0.9940
  1.1817          -0.6840
  1.1833          -0.8670
  1.1850          -0.9780
  1.1867          -1.0820
  1.1883          -1.1470
  1.1900          -0.9190
  1.1917          -1.0010
  1.1933          -1.0050
  1.1950          -1.2370
  1.1967          -1.3490
  1.1983          -1.3090
  1.2000          -1.1870
  1.2017          -0.8240
  1.2033          -0.5380
  1.2050          -0.2560
  1.2067           0.2700
  1.2083           0.9800
  1.2100           1.8690
  1.2117           2.5240
  1.2133           2.8520
  1.2150           2.8910
  1.2167           2.5140
  1.2183           2.0980
  1.2200           1.6380
  1.2217           1.0790
  1.2233           0.5420
  1.2250           0.3020
  1.2267           0.1210
  1.2283           0.4030
  1.2300           0.2950
  1.2317           0.2250
  1.2333           0.1050
  1.2350           0.2130
  1.2367           1.0630
  1.2383           2.2720
  1.2400           4.0250
  1.2417           5.2060
  1.2433           5.9470
  1.2450           5.8290
  1.2467           5.0040
  1.2483           4.2260
  1.2500           3.0970
  1.2517           2.4110
  1.2533           1.7040
  1.2550           1.1950
  1.2567           0.7380
  1.2583           0.5200
  1.2600           0.4330
  1.2617           0.4400
  1.2633           0.4440
  1.2650           0.1660
  1.2667          -0.1530
  1.2683          -0.4820
  1.2700          -0.8350
  1.2717          -0.9770
  1.2733          -1.1340
  1.2750          -1.0220
  1.2767          -1.0200
  1.2783          -1.1730
  1.2800          -0.9910
  1.2817          -1.1490
  1.2833          -1.0690
  1.2850          -1.0490
  1.2867          -1.1040
  1.2883          -1.1220
  1.2900          -0.8740
  1.2917          -1.0490
  1.2933          -1.2990
  1.2950          -1.3660
  1.2967          -1.5130
  1.2983          -1.1380
  1.3000          -1.0780
  1.3017          -0.8290
  1.3033          -0.8760
  1.3050          -1.1040
  1.3067          -1.2360
  1.3083          -1.4180
  1.3100          -1.1630
  1.3117          -1.1480
  1.3133          -1.0660
  1.3150          -0.8790
  1.3167          -0.8200
  1.3183          -0.6130
  1.3200          -0.4310
  1.3217          -0.0520
  1.3233           0.0440
  1.3250           0.1080
  1.3267           0.0770
  1.3283          -0.2890
  1.3300          -0.4370
  1.3317          -0.6880
  1.3333          -0.7100
  1.3350          -0.6300
  1.3367          -0.3550
  1.3383          -0.3970
  1.3400          -0.3830
  1.3417          -0.3780
  1.3433          -0.9320
  1.3450          -0.8740
  1.3467          -1.1270
  1.3483          -1.0480
  1.3500          -0.8980
  1.3517          -0.8820
  1.3533          -0.9960
  1.3550          -1.3710
  1.3567          -1.4490
  1.3583          -1.5040
  1.3600          -1.0280
  1.3617          -0.8100
  1.3633          -0.5190
  1.3650          -0.5670
  1.3667          -0.8600
  1.3683          -0.9400
  1.3700          -1.2210
  1.3717          -1.1470
  1.3733          -1.1940
  1.3750          -1.2160
  1.3767          -1.1690
  1.3783          -1.2480
  1.3800          -0.9680
  1.3817          -0.6600
  1.3833           0.0270
  1.3850           0.7780
  1.3867           1.6030
  1.3883           2.6850
  1.3900           3.6760
  1.3917           5.0700
  1.3933           6.1560
  1.3950           6.9600
  1.3967           7.2670
  1.3983           7.0470
  1.4000           6.8260
  1.4017           6.2460
  1.4033           5.8110
  1.4050           5.5810
  1.4067           6.1980
  1.4083           7.5040
  1.4100          10.2480
  1.4117          13.8570
  1.4133          18.4130
  1.4150          23.7110
  1.4167          28.5220
  1.4183          32.8870
  1.4200          35.3860
  1.4217          36.5220
  1.4233          36.1460
  1.4250          34.7250
  1.4267          32.9500
  1.4283          30.7650
  1.4300          28.8440
  1.4317          26.6960
  1.4333          24.8740
  1.4350          23.0410
  1.4367          21.5820
  1.4383          21.7970
  1.4400          23.9060
  1.4417          29.2740
  1.4433          37.8640
  1.4450          49.9200
  1.4467          65.0940
  1.4483          82.6550
  1.4500         102.3310
  1.4517         122.8250
  1.4533         144.6350
  1.4550         167.3280
  1.4567         191.1600
  1.4583         215.7840
  1.4600         240.0900
  1.4617         266.1720
  1.4633         290.4010
  1.4650         314.3190
  1.4667         338.9670
  1.4683         361.8970
  1.4700         387.2710
  1.4717         412.2480
  1.4733         436.4250
  1.4750         456.8010
  1.4767         444.6860
  1.4783         361.6320
  1.4800         240.5820
  1.4817         116.0280
  1.4833          29.4690
  1.4850           5.2820
  1.4867           2.0090
  1.4883           1.0620
  1.4900           0.2420
  1.4917          -0.0830
  1.4933          -0.3020
  1.4950          -0.3210
  1.4967          -0.4740
  1.4983          -0.8100
  1.5000          -0.9020
  1.5017          -1.0160
  1.5033          -0.8290
  1.5050          -0.7260
  1.5067          -0.4340
  1.5083          -0.3740
  1.5100          -0.6280
  1.5117          -0.7330
  1.5133          -1.2370
  1.5150          -1.2400
  1.5167          -1.2860
  1.5183          -1.2290
  1.5200          -1.0810
  1.5217          -1.2130
  1.5233          -1.1030
  1.5250          -1.0580
  1.5267          -0.7980
  1.5283          -0.7710
  1.5300          -0.7940
  1.5317          -0.9190
  1.5333          -1.3890
  1.5350          -1.3890
  1.5367          -1.1930
  1.5383          -0.5870
  1.5400           0.1320
  1.5417           1.0000
  1.5433           1.4720
  1.5450           1.6280
  1.5467           1.7400
  1.5483           1.3000
  1.5500           0.9710
  1.5517           0.4480
  1.5533           0.0630
  1.5550          -0.4400
  1.5567          -1.0560
  1.5583          -1.3670
  1.5600          -1.7210
  1.5617          -1.4360
  1.5633          -1.1450
  1.5650          -0.9020
  1.5667          -0.7910
  1.5683          -0.8430
  1.5700          -0.8700
  1.5717          -1.1910
  1.5733          -1.2720
  1.5750          -1.4560
  1.5767          -1.3850
  1.5783          -1.1790
  1.5800          -1.2180
  1.5817          -1.1990
  1.5833          -1.3330
  1.5850          -1.2600
  1.5867          -1.1280
  1.5883          -0.9140
  1.5900          -0.9160
  1.5917          -1.0790
  1.5933          -1.1690
  1.5950          -1.5720
  1.5967          -1.6720
  1.5983          -1.6530
  1.6000          -1.3910
  1.6017          -1.1910
  1.6033          -1.0120
  1.6050          -0.9430
  1.6067          -1.1620
  1.6083          -1.0810
  1.6100          -1.0430
  1.6117          -1.0570
  1.6133          -0.9860
  1.6150          -1.1940
  1.6167          -1.2790
  1.6183          -1.5840
  1.6200          -1.4780
  1.6217          -1.3430
  1.6233          -1.1210
  1.6250          -0.8100
  1.6267          -0.7990
  1.6283          -0.8210
  1.6300          -0.9310
  1.6317          -1.0790
  1.6333          -1.4360
  1.6350          -1.3630
  1.6367          -1.3710
  1.6383          -1.1390
  1.6400          -0.9550
  1.6417          -1.1220
  1.6433          -1.0170
  1.6450          -1.2290
  1.6467          -1.1130
  1.6483          -1.0430
  1.6500          -0.9050
  1.6517          -0.8150
  1.6533          -1.1560
  1.6550          -1.2400
  1.6567          -1.6070
  1.6583          -1.6150
  1.6600          -1.4320
  1.6617          -1.2880
  1.6633          -1.1690
  1.6650          -1.0980
  1.6667          -1.0960
  1.6683          -1.3110
  1.6700          -1.3270
  1.6717          -1.2540
  1.6733          -1.2030
  1.6750          -1.0110
  1.6767          -1.2630
  1.6783          -1.4080
  1.6800          -1.6480
  1.6817          -1.5990
  1.6833          -1.2930
  1.6850          -1.0450
  1.6867          -0.7360
  1.6883          -0.6290
  1.6900          -0.4760
  1.6917          -0.3970
  1.6933          -0.2970
  1.6950          -0.4250
  1.6967          -0.2720
  1.6983          -0.0830
  1.7000           0.1730
  1.7017           0.3520
  1.7033           0.0340
  1.7050          -0.0750
  1.7067          -0.4490
  1.7083          -0.4970
  1.7100          -0.4530
  1.7117          -0.5280
  1.7133          -0.6560
  1.7150          -1.0430
  1.7167          -1.0730
  1.7183          -1.1250
  1.7200          -0.9640
  1.7217          -0.5090
  1.7233          -0.2290
  1.7250           0.0420
  1.7267           0.0660
  1.7283           0.0670
  1.7300          -0.0390
  1.7317          -0.1080
  1.7333          -0.0530
  1.7350          -0.2270
  1.7367          -0.2510
  1.7383          -0.5030
  1.7400          -0.5180
  1.7417          -0.7870
  1.7433          -0.7720
  1.7450          -0.6700
  1.7467          -0.5870
  1.7483          -0.4180
  1.7500          -0.7060
  1.7517          -0.7990
  1.7533          -0.9350
  1.7550          -1.0240
  1.7567          -1.0680
  1.7583          -1.0940
  1.7600          -1.0960
  1.7617          -0.9580
  1.7633          -0.8510
  1.7650          -0.8760
  1.7667          -0.7360
  1.7683          -1.0160
  1.7700          -0.9170
  1.7717          -0.9300
  1.7733          -1.0510
  1.7750          -0.9680
  1.7767          -1.2390
  1.7783          -1.4300
  1.7800          -1.5540
  1.7817          -1.5430
  1.7833          -1.1540
  1.7850          -1.0080
  1.7867          -0.8420
  1.7883          -1.0350
  1.7900          -1.1060
  1.7917          -1.2030
  1.7933          -1.2470
  1.7950          -1.1820
  1.7967          -1.3240
  1.7983          -1.1670
  1.8000          -1.3450
  1.8017          -1.3550
  1.8033          -1.3660
  1.8050          -1.2960
  1.8067          -0.9790
  1.8083          -0.9780
  1.8100          -0.9210
  1.8117          -1.1870
  1.8133          -1.3250
  1.8150          -1.3930
  1.8167          -1.3250
  1.8183          -1.2140
  1.8200          -1.0860
  1.8217          -0.9690
  1.8233          -0.9810
  1.8250          -0.7730
  1.8267          -0.7870
  1.8283          -0.7350
  1.8300          -0.6930
  1.8317          -0.7530
  1.8333          -0.7290
  1.8350          -0.8600
  1.8367          -1.0590
  1.8383          -1.3890
  1.8400          -1.4340
  1.8417          -1.4090
  1.8433          -1.3230
  1.8450          -0.8270
  1.8467          -0.8760
  1.8483          -0.7290
  1.8500          -0.9000
  1.8517          -1.0560
  1.8533          -1.0370
  1.8550          -1.0350
  1.8567          -0.7080
  1.8583          -0.6600
  1.8600          -0.3920
  1.8617          -0.3400
  1.8633          -0.1950
  1.8650           0.0290
  1.8667           0.2370
  1.8683           0.5480
  1.8700           0.4830
  1.8717           0.3980
  1.8733          -0.0160
  1.8750          -0.2760
  1.8767          -0.4540
  1.8783          -0.5310
  1.8800          -0.4930
  1.8817          -0.5440
  1.8833          -0.4820
  1.8850          -0.6080
  1.8867          -0.5040
  1.8883          -0.3110
  1.8900          -0.2480
  1.8917          -0.0430
  1.8933          -0.2790
  1.8950          -0.5520
  1.8967          -0.8580
  1.8983          -0.9770
  1.9000          -0.7330
  1.9017          -0.7420
  1.9033          -0.4800
  1.9050          -0.6540
  1.9067          -0.6590
  1.9083          -0.8840
  1.9100          -0.9990
  1.9117          -1.1750
  1.9133          -1.2490
  1.9150          -1.1430
  1.9167          -1.2540
  1.9183          -1.0200
  1.9200          -1.2240
  1.9217          -1.2270
  1.9233          -1.4310
  1.9250          -1.3380
  1.9267          -1.0550
  1.9283          -0.8780
  1.9300          -0.5310
  1.9317          -0.7320
  1.9333          -0.8530
  1.9350          -1.1530
  1.9367          -1.3000
  1.9383          -1.1210
  1.9400          -1.0100
  1.9417          -0.8970
  1.9433          -0.8980
  1.9450          -0.9030
  1.9467          -0.8340
  1.9483          -0.7700
  1.9500          -0.4950
  1.9517          -0.6540
  1.9533          -0.6290
  1.9550          -0.8320
  1.9567          -1.1500
  1.9583          -1.3880
  1.9600          -1.5220
  1.9617          -1.2410
  1.9633          -1.1770
  1.9650          -0.7290
  1.9667          -0.8900
  1.9683          -0.8840
  1.9700          -0.8860
  1.9717          -0.9600
  1.9733          -0.7400
  1.9750          -0.7840
  1.9767          -0.7440
  1.9783          -0.9470
  1.9800          -1.0360
  1.9817          -1.3440
  1.9833          -1.4420
  1.9850          -1.3950
  1.9867          -1.2680
  1.9883          -0.7520
  1.9900          -0.6330
  1.9917          -0.4730
  1.9933          -0.7530
  1.9950          -0.9450
  1.9967          -1.3070
  1.9983          -1.4410
  2.0000          -1.3330
  2.0017          -1.2750
  2.0033          -1.0540
  2.0050          -1.1390
  2.0067          -1.1650
  2.0083          -1.1990
  2.0100          -1.2370
  2.0117          -0.8380
  2.0133          -0.9420
  2.0150          -0.9810
  2.0167          -1.2770
  2.0183          -1.5280
  2.0200          -1.4670
  2.0217          -1.5600
  2.0233          -1.2420
  2.0250          -1.1450
  2.0267          -0.8950
  2.0283          -0.9820
  2.0300          -0.9670
  2.0317          -0.9580
  2.0333          -1.1060
  2.0350          -0.8440
  2.0367          -1.0010
  2.0383          -1.0980
  2.0400          -1.3500
  2.0417          -1.5420
  2.0433          -1.5050
  2.0450          -1.4250
  2.0467          -0.9370
  2.0483          -0.7660
  2.0500          -0.6430
  2.0517          -0.8080
  2.0533          -1.0690
  2.0550          -1.3150
  2.0567          -1.4810
  2.0583          -1.3460
  2.0600          -1.3070
  2.0617          -1.0750
  2.0633          -1.1360
  2.0650          -1.3300
  2.0667          -1.3760
  2.0683          -1.3370
  2.0700          -1.0740
  2.0717          -0.9030
  2.0733          -0.6900
  2.0750          -0.8210
  2.0767          -0.9840
  2.0783          -1.1880
  2.0800          -1.5010
  2.0817          -1.4370
  2.0833          -1.4250
  2.0850          -1.1890
  2.0867          -1.1480
  2.0883          -1.0000
  2.0900          -1.0720
  2.0917          -1.0540
  2.0933          -0.8940
  2.0950          -1.0740
  2.0967          -0.9290
  2.0983          -1.1080
  2.1000          -1.2360
  2.1017          -1.5010
  2.1033          -1.6470
  2.1050          -1.4490
  2.1067          -1.3060
  2.1083          -0.8480
  2.1100          -0.7300
  2.1117          -0.8390
  2.1133          -0.7350
  2.1150          -0.7710
  2.1167          -0.8270
  2.1183          -0.7600
  2.1200          -0.5610
  2.1217          -0.3690
  2.1233           0.1810
  2.1250           0.3450
  2.1267           0.4270
  2.1283           0.7340
  2.1300           0.6280
  2.1317           0.8930
  2.1333           0.8300
  2.1350           0.8360
  2.1367           0.6360
  2.1383           0.2960
  2.1400           0.0740
  2.1417          -0.2630
  2.1433          -0.1930
  2.1450          -0.3190
  2.1467          -0.2870
  2.1483          -0.3280
  2.1500          -0.3920
  2.1517          -0.4800
  2.1533          -0.5610
  2.1550          -0.5130
  2.1567          -0.7270
  2.1583          -0.7370
  2.1600          -1.0130
  2.1617          -1.2040
  2.1633          -1.1140
  2.1650          -1.1450
  2.1667          -0.9200
  2.1683          -0.7900
  2.1700          -0.6440
  2.1717          -0.5550
  2.1733          -0.7850
  2.1750          -0.8770
  2.1767          -1.0190
  2.1783          -0.8280
  2.1800          -0.7920
  2.1817          -0.7280
  2.1833          -0.7920
  2.1850          -0.9780
  2.1867          -0.9040
  2.1883          -1.0400
  2.1900          -0.7790
  2.1917          -0.8260
  2.1933          -0.6090
  2.1950          -0.5700
  2.1967          -0.6160
  2.1983          -0.8980
  2.2000          -1.3450
  2.2017          -1.3130
  2.2033          -1.4980
  2.2050          -0.9380
  2.2067          -0.8310
  2.2083          -0.7890
  2.2100          -0.6830
  2.2117          -1.0220
  2.2133          -1.0820
  2.2150          -1.3030
  2.2167          -1.1180
  2.2183          -1.2120
  2.2200          -1.2170
  2.2217          -1.2510
  2.2233          -1.4410
  2.2250          -1.3810
  2.2267          -1.2300
  2.2283          -0.9530
  2.2300          -0.7950
  2.2317          -0.9030
  2.2333          -0.9640
  2.2350          -1.3090
  2.2367          -1.2720
  2.2383          -1.2700
  2.2400          -1.1800
  2.2417          -1.2480
  2.2433          -1.1470
  2.2450          -1.1670
  2.2467          -1.5150
  2.2483          -1.3260
  2.2500          -1.3860
  2.2517          -0.9820
  2.2533          -0.8030
  2.2550          -0.8600
  2.2567          -1.0280
  2.2583          -1.1530
  2.2600          -1.2690
  2.2617          -1.5310
  2.2633          -1.4370
  2.2650          -1.5080
  2.2667          -1.1100
  2.2683          -0.9750
  2.2700          -0.9500
  2.2717          -0.9330
  2.2733          -1.0780
  2.2750          -1.0320
  2.2767          -1.0950
  2.2783          -0.8500
  2.2800          -1.0030
  2.2817          -1.2480
  2.2833          -1.3440
  2.2850          -1.7300
  2.2867          -1.5000
  2.2883          -1.2950
  2.2900          -1.0790
  2.2917          -0.7920
  2.2933          -0.9570
  2.2950          -0.8910
  2.2967          -1.1160
  2.2983          -1.0310
  2.3000          -1.0270
  2.3017          -0.9900
  2.3033          -0.9740
  2.3050          -1.1550
  2.3067          -1.0730
  2.3083          -1.1200
  2.3100          -0.8150
  2.3117          -0.7490
  2.3133          -0.3930
  2.3150          -0.3570
  2.3167          -0.5690
  2.3183          -0.5940
  2.3200          -0.9480
  2.3217          -0.9790
  2.3233          -0.9870
  2.3250          -0.9040
  2.3267          -0.8700
  2.3283          -1.0790
  2.3300          -1.0730
  2.3317          -1.2180
  2.3333          -1.1110
  2.3350          -0.9990
  2.3367          -0.9350
  2.3383          -0.9820
  2.3400          -0.9230
  2.3417          -1.0310
  2.3433          -1.3090
  2.3450          -1.2650
  2.3467          -1.4260
  2.3483          -1.1870
  2.3500          -0.9290
  2.3517          -0.8280
  2.3533          -0.7010
  2.3550          -1.0090
  2.3567          -1.0910
  2.3583          -1.2160
  2.3600          -1.0130
  2.3617          -0.9810
  2.3633          -0.8810
  2.3650          -0.8760
  2.3667          -1.0330
  2.3683          -0.9550
  2.3700          -0.9810
  2.3717          -0.6960
  2.3733          -0.5900
  2.3750          -0.5410
  2.3767          -0.5420
  2.3783          -0.8600
  2.3800          -0.9230
  2.3817          -1.0310
  2.3833          -0.8600
  2.3850          -0.8880
  2.3867          -0.8220
  2.3883          -0.7760
  2.3900          -1.1640
  2.3917          -1.0320
  2.3933          -1.0350
  2.3950          -0.8920
  2.3967          -0.6770
  2.3983          -0.5850
  2.4000          -0.6390
  2.4017          -0.8010
  2.4033          -0.7620
  2.4050          -0.8680
  2.4067          -0.5320
  2.4083          -0.1880
  2.4100           0.0660
  2.4117           0.3780
  2.4133           0.2460
  2.4150           0.4070
  2.4167           0.3700
  2.4183           0.4690
  2.4200           0.4940
  2.4217           0.2550
  2.4233           0.0690
  2.4250          -0.3650
  2.4267          -0.4580
  2.4283          -0.5860
  2.4300          -0.5190
  2.4317          -0.4790
  2.4333          -0.1950
  2.4350          -0.0580
  2.4367          -0.1180
  2.4383          -0.0960
  2.4400          -0.5580
  2.4417          -0.7540
  2.4433          -0.8690
  2.4450          -0.9240
  2.4467          -0.7900
  2.4483          -0.6930
  2.4500          -0.6270
  2.4517          -0.8250
  2.4533          -0.7010
  2.4550          -0.6840
  2.4567          -0.5630
  2.4583          -0.4190
  2.4600          -0.5560
  2.4617          -0.6090
  2.4633          -0.9380
  2.4650          -1.0430
  2.4667          -1.1200
  2.4683          -0.9890
  2.4700          -0.7660
  2.4717          -0.7310
  2.4733          -0.6000
  2.4750          -0.8460
  2.4767          -0.8000
  2.4783          -0.9420
  2.4800          -0.9530
  2.4817          -0.8570
  2.4833          -1.1150
  2.4850          -1.1160
  2.4867          -1.3380
  2.4883          -1.3110
  2.4900          -1.2300
  2.4917          -1.1620
  2.4933          -1.0380
  2.4950          -0.8370
  2.4967          -0.7280
  2.4983          -0.7520
  2.5000          -0.9080
  2.5017          -1.2610
  2.5033          -1.3480
  2.5050          -1.3970
  2.5067          -1.3470
  2.5083          -1.1010
  2.5100          -0.9570
  2.5117          -0.7950
  2.5133          -0.7570
  2.5150          -0.5560
  2.5167          -0.1640
  2.5183           0.3200
  2.5200           0.9090
  2.5217           1.2440
  2.5233           1.7960
  2.5250           2.1010
  2.5267           2.7030
  2.5283           3.4010
  2.5300           4.0900
  2.5317           4.7450
  2.5333           4.8230
  2.5350           4.9300
  2.5367           4.6460
  2.5383           4.6920
  2.5400           4.7190
  2.5417           4.5630
  2.5433           4.2530
  2.5450           3.5190
  2.5467           3.1200
  2.5483           2.5720
  2.5500           2.2680
  2.5517           2.0470
  2.5533           1.8240
  2.5550           1.7940
  2.5567           1.7630
  2.5583           1.7760
  2.5600           1.2920
  2.5617           0.9910
  2.5633           0.4590
  2.5650           0.1070
  2.5667          -0.0270
  2.5683          -0.2400
  2.5700          -0.1650
  2.5717          -0.1900
  2.5733          -0.2240
  2.5750          -0.5330
  2.5767          -0.5810
  2.5783          -0.5890
  2.5800          -0.6120
  2.5817          -0.4410
  2.5833          -0.7830
  2.5850          -0.9390
  2.5867          -1.2130
  2.5883          -1.2910
  2.5900          -1.1510
  2.5917          -0.9410
  2.5933          -0.7150
  2.5950          -0.9230
  2.5967          -0.8370
  2.5983          -1.0310
  2.6000          -0.9720
  2.6017          -0.8190
  2.6033          -0.9780
  2.6050          -1.0270
  2.6067          -1.0880
  2.6083          -1.0740
  2.6100          -1.2690
  2.6117          -1.1960
  2.6133          -1.2900
  2.6150          -1.1120
  2.6167          -0.8500
  2.6183          -0.8640
  2.6200          -0.8590
  2.6217          -1.1750
  2.6233          -1.3500
  2.6250          -1.4170
  2.6267          -1.4260
  2.6283          -1.1820
  2.6300          -1.1440
  2.6317          -1.1190
  2.6333          -1.2400
  2.6350          -1.1950
  2.6367          -1.1200
  2.6383          -0.9060
  2.6400          -0.6500
  2.6417          -0.7230
  2.6433          -0.7270
  2.6450          -1.2620
  2.6467          -1.3840
  2.6483          -1.5800
  2.6500          -1.5110
  2.6517          -1.1760
  2.6533          -1.0660
  2.6550          -0.8460
  2.6567          -0.8640
  2.6583          -0.9000
  2.6600          -1.0200
  2.6617          -1.0490
  2.6633          -1.0710
  2.6650          -1.1770
  2.6667          -1.1960
  2.6683          -1.5090
  2.6700          -1.5490
  2.6717          -1.4490
  2.6733          -1.2610
  2.6750          -0.8110
  2.6767          -0.7990
  2.6783          -0.7240
  2.6800          -0.8150
  2.6817          -0.9060
  2.6833          -1.2220
  2.6850          -1.3640
  2.6867          -1.5420
  2.6883          -1.4370
  2.6900          -1.0630
  2.6917          -1.0750
  2.6933          -0.9020
  2.6950          -1.0590
  2.6967          -1.0490
  2.6983          -1.0020
  2.7000          -1.0020
  2.7017          -0.7840
  2.7033          -0.9270
  2.7050          -0.8430
  2.7067          -1.2800
  2.7083          -1.3760
  2.7100          -1.4620
  2.7117          -1.4360
  2.7133          -1.1710
  2.7150          -1.0960
  2.7167          -0.8440
  2.7183          -1.0150
  2.7200          -0.9140
  2.7217          -0.9800
  2.7233          -0.9910
  2.7250          -0.9290
  2.7267          -1.0770
  2.7283          -1.0810
  2.7300          -1.5450
  2.7317          -1.4490
  2.7333          -1.3910
  2.7350          -1.3140
  2.7367          -0.6780
  2.7383          -0.6880
  2.7400          -0.5150
  2.7417          -0.7610
  2.7433          -0.8930
  2.7450          -1.0120
  2.7467          -1.1310
  2.7483          -0.9050
  2.7500          -1.1180
  2.7517          -1.0070
  2.7533          -1.0860
  2.7550          -1.0290
  2.7567          -0.7630
  2.7583          -0.6890
  2.7600          -0.4150
  2.7617          -0.5080
  2.7633          -0.4580
  2.7650          -0.7350
  2.7667          -0.8870
  2.7683          -1.2780
  2.7700          -1.2860
  2.7717          -1.2680
  2.7733          -1.0920
  2.7750          -0.7010
  2.7767          -0.6720
  2.7783          -0.5340
  2.7800          -0.8390
  2.7817          -0.8950
  2.7833          -0.9210
  2.7850          -0.9220
  2.7867          -0.8020
  2.7883          -1.0580
  2.7900          -1.1370
  2.7917          -1.4440
  2.7933          -1.3990
  2.7950          -1.1350
  2.7967          -1.1130
  2.7983          -0.6750
  2.8000          -0.7340
  2.8017          -0.7870
  2.8033          -0.9530
  2.8050          -1.1910
  2.8067          -1.1960
  2.8083          -1.3380
  2.8100          -1.0630
  2.8117          -1.1880
  2.8133          -1.2130
  2.8150          -1.3640
  2.8167          -1.3250
  2.8183          -1.0560
  2.8200          -0.9100
  2.8217          -0.7950
  2.8233          -1.0510
  2.8250          -1.1490
  2.8267          -1.3890
  2.8283          -1.5020
  2.8300          -1.3470
  2.8317          -1.2660
  2.8333          -1.1830
  2.8350          -1.0560
  2.8367          -1.0430
  2.8383          -1.0430
  2.8400          -1.0430
  2.8417          -1.1220
  2.8433          -1.0880
  2.8450          -1.0740
  2.8467          -1.0870
  2.8483          -1.1570
  2.8500          -1.1720
  2.8517          -1.1570
  2.8533          -1.3930
  2.8550          -1.3120
  2.8567          -1.2490
  2.8583          -1.0330
  2.8600          -0.6450
  2.8617          -0.8690
  2.8633          -0.9230
  2.8650          -1.1610
  2.8667          -1.2440
  2.8683          -1.1490
  2.8700          -1.2360
  2.8717          -1.0760
  2.8733          -1.1880
  2.8750          -1.1350
  2.8767          -1.2990
  2.8783          -1.1850
  2.8800          -0.9840
  2.8817          -0.8340
  2.8833          -0.6380
  2.8850          -0.8720
  2.8867          -0.9560
  2.8883          -1.2630
  2.8900          -1.3890
  2.8917          -1.2930
  2.8933          -1.3070
  2.8950          -1.0550
  2.8967          -0.9700
  2.8983          -1.0040
  2.9000          -0.9360
  2.9017          -0.9660
  2.9033          -0.8430
  2.9050          -0.9920
  2.9067          -0.9850
  2.9083          -1.1100
  2.9100          -1.2140
  2.9117          -1.3300
  2.9133          -1.3820
  2.9150          -1.1360
  2.9167          -1.1720
  2.9183          -0.8600
  2.9200          -0.9550
  2.9217          -0.9340
  2.9233          -0.9620
  2.9250          -1.1800
  2.9267          -0.9010
  2.9283          -1.0520
  2.9300          -1.0280
  2.9317          -1.0950
  2.9333          -1.0000
  2.9350          -1.2500
  2.9367          -1.2180
  2.9383          -1.3310
  2.9400          -1.3010
  2.9417          -0.9860
  2.9433          -0.8770
  2.9450          -0.7170
  2.9467          -1.0590
  2.9483          -1.1050
  2.9500          -1.3610
  2.9517          -1.5550
  2.9533          -1.1940
  2.9550          -1.1880
  2.9567          -1.0890
  2.9583          -1.0520
  2.9600          -1.1790
  2.9617          -1.1540
  2.9633          -1.0030
  2.9650          -0.7360
  2.9667          -0.8280
  2.9683          -0.7980
  2.9700          -1.1240
  2.9717          -1.3690
  2.9733          -1.5070
  2.9750          -1.5290
  2.9767          -1.2970
  2.9783          -1.2540
  2.9800          -0.8640
  2.9817          -0.9130
  2.9833          -0.7260
  2.9850          -0.6330
  2.9867          -0.7090
  2.9883          -0.5700
  2.9900          -0.6820
  2.9917          -0.6520
  2.9933          -0.9130
  2.9950          -1.0210
  2.9967          -0.9920
  2.9983          -0.9620
  3.0000          -0.4520
  3.0017          -0.2820
  3.0033          -0.2630
  3.0050          -0.4540
  3.0067          -0.7460
  3.0083          -0.9300
  3.0100          -1.0310
  3.0117          -0.7030
  3.0133          -0.7260
  3.0150          -0.7220
  3.0167          -0.6670
  3.0183          -0.7210
  3.0200          -0.4530
  3.0217          -0.2090
  3.0233           0.2640
  3.0250           0.3710
  3.0267           0.4660
  3.0283           0.3530
  3.0300           0.1480
  3.0317           0.3120
  3.0333           0.3300
  3.0350           0.6150
  3.0367           0.6710
  3.0383           0.7700
  3.0400           0.6800
  3.0417           0.6750
  3.0433           0.6920
  3.0450           0.5300
  3.0467           0.5670
  3.0483           0.4810
  3.0500           0.6260
  3.0517           0.5560
  3.0533           0.5000
  3.0550           0.2620
  3.0567           0.0440
  3.0583           0.0860
  3.0600           0.1640
  3.0617           0.4650
  3.0633           0.5370
  3.0650           0.4570
  3.0667           0.3020
  3.0683           0.1920
  3.0700           0.1490
  3.0717           0.0660
  3.0733           0.1930
  3.0750           0.1420
  3.0767          -0.0070
  3.0783          -0.0860
  3.0800          -0.2250
  3.0817           0.1510
  3.0833           0.2020
  3.0850           0.5300
  3.0867           0.3200
  3.0883           0.0020
  3.0900          -0.1890
  3.0917          -0.5490
  3.0933          -0.3200
  3.0950          -0.5890
  3.0967          -0.5410
  3.0983          -0.5260
  3.1000          -0.6220
  3.1017          -0.6230
  3.1033          -0.6310
  3.1050          -0.3370
  3.1067          -0.4430
  3.1083          -0.2650
  3.1100          -0.3500
  3.1117          -0.8000
  3.1133          -0.9470
  3.1150          -1.1450
  3.1167          -1.0120
  3.1183          -0.9290
  3.1200          -0.6750
  3.1217          -0.5730
  3.1233          -0.7140
  3.1250          -0.6790
  3.1267          -0.9100
  3.1283          -0.7760
  3.1300          -0.8300
  3.1317          -0.7080
  3.1333          -0.8680
  3.1350          -0.9160
  3.1367          -1.0710
  3.1383          -1.2830
  3.1400          -1.1720
  3.1417          -1.3640
  3.1433          -0.9490
  3.1450          -0.9330
  3.1467          -0.6950
  3.1483          -0.6920
  3.1500          -0.9370
  3.1517          -1.0740
  3.1533          -1.2720
  3.1550          -1.2410
  3.1567          -1.2600
  3.1583          -1.1720
  3.1600          -1.2280
  3.1617          -1.3110
  3.1633          -1.2460
  3.1650          -1.1520
  3.1667          -0.8820
  3.1683          -0.6840
  3.1700          -0.6970
  3.1717          -0.8280
  3.1733          -1.2490
  3.1750          -1.2900
  3.1767          -1.3810
  3.1783          -1.2270
  3.1800          -1.0450
  3.1817          -0.9430
  3.1833          -0.9290
  3.1850          -1.0220
  3.1867          -0.8980
  3.1883          -0.9710
  3.1900          -0.6880
  3.1917          -0.7270
  3.1933          -0.9620
  3.1950          -1.1880
  3.1967          -1.6350
  3.1983          -1.5650
  3.2000          -1.6090
  3.2017          -0.9900
  3.2033          -0.8810
  3.2050          -0.6540
  3.2067          -0.4970
  3.2083          -0.6140
  3.2100          -0.7440
  3.2117          -1.2270
  3.2133          -1.3110
  3.2150          -1.5300
  3.2167          -1.2180
  3.2183          -1.1430
  3.2200          -1.1720
  3.2217          -1.1410
  3.2233          -1.2500
  3.2250          -1.1420
  3.2267          -1.0280
  3.2283          -0.7180
  3.2300          -0.7060
  3.2317          -0.8520
  3.2333          -1.0990
  3.2350          -1.5660
  3.2367          -1.5610
  3.2383          -1.6380
  3.2400          -1.3110
  3.2417          -1.1220
  3.2433          -0.9370
  3.2450          -0.7810
  3.2467          -0.9890
  3.2483          -0.9130
  3.2500          -1.0890
  3.2517          -0.9220
  3.2533          -0.9610
  3.2550          -1.1410
  3.2567          -1.1720
  3.2583          -1.5410
  3.2600          -1.3930
  3.2617          -1.3760
  3.2633          -1.0120
  3.2650          -0.8680
  3.2667          -0.9200
  3.2683          -0.8910
  3.2700          -1.0610
  3.2717          -1.0600
  3.2733          -1.0890
  3.2750          -1.0770
  3.2767          -1.1910
  3.2783          -1.1370
  3.2800          -1.2410
  3.2817          -1.3120
  3.2833          -1.2470
  3.2850          -1.3060
  3.2867          -1.0810
  3.2883          -0.9710
  3.2900          -0.6940
  3.2917          -0.7390
  3.2933          -0.9800
  3.2950          -1.1540
  3.2967          -1.5400
  3.2983          -1.4650
  3.3000          -1.4340
  3.3017          -1.2830
  3.3033          -1.2340
  3.3050          -1.1900
  3.3067          -1.0490
  3.3083          -1.1290
  3.3100          -0.9110
  3.3117          -1.0150
  3.3133          -0.9750
  3.3150          -1.0290
  3.3167          -1.2510
  3.3183          -1.3200
  3.3200          -1.5690
  3.3217          -1.3760
  3.3233          -1.3630
  3.3250          -0.9480
  3.3267          -0.8180
  3.3283          -0.8520
  3.3300          -0.8500
  3.3317          -1.0850
  3.3333          -1.3210
  3.3350          -1.4310
  3.3367          -1.4040
  3.3383          -1.4650
  3.3400          -1.1220
  3.3417          -1.0210
  3.3433          -1.2450
  3.3450          -1.2480
  3.3467          -1.3360
  3.3483          -1.1700
  3.3500          -1.0040
  3.3517          -0.7440
  3.3533          -0.7950
  3.3550          -1.1360
  3.3567          -1.1440
  3.3583          -1.3910
  3.3600          -1.3210
  3.3617          -1.1650
  3.3633          -1.1530
  3.3650          -1.1010
  3.3667          -1.1750
  3.3683          -1.1080
  3.3700          -1.0830
  3.3717          -0.8220
  3.3733          -0.8240
  3.3750          -0.8370
  3.3767          -0.9940
  3.3783          -1.3810
  3.3800          -1.3650
  3.3817          -1.5980
  3.3833          -1.3370
  3.3850          -1.1760
  3.3867          -0.9460
  3.3883          -0.8680
  3.3900          -1.0220
  3.3917          -1.0850
  3.3933          -1.1780
  3.3950          -1.1580
  3.3967          -1.2590
  3.3983          -1.2710
  3.4000          -1.2180
  3.4017          -0.9330
  3.4033          -0.8240
  3.4050          -1.0090
  3.4067          -0.9460
  3.4083          -1.0410
  3.4100          -0.7460
  3.4117          -0.5420
  3.4133          -0.3730
  3.4150          -0.2330
  3.4167          -0.4450
  3.4183          -0.4360
  3.4200          -0.5850
  3.4217          -0.3070
  3.4233          -0.0660
  3.4250           0.0820
  3.4267           0.3420
  3.4283           0.2450
  3.4300           0.4390
  3.4317           0.5790
  3.4333           0.8300
  3.4350           0.8800
  3.4367           0.8160
  3.4383           0.7600
  3.4400           0.5280
  3.4417           0.5350
  3.4433           0.5580
  3.4450           0.5380
  3.4467           0.5840
  3.4483           0.8070
  3.4500           0.8230
  3.4517           0.9730
  3.4533           0.8360
  3.4550           0.3170
  3.4567           0.1700
  3.4583          -0.0530
  3.4600           0.0370
  3.4617           0.1890
  3.4633           0.3530
  3.4650           0.3830
  3.4667          -0.0120
  3.4683          -0.0040
  3.4700          -0.1340
  3.4717           0.1120
  3.4733           0.3150
  3.4750           0.2440
  3.4767           0.2060
  3.4783          -0.1810
  3.4800          -0.2820
  3.4817          -0.4000
  3.4833          -0.3210
  3.4850          -0.1700
  3.4867          -0.2850
  3.4883          -0.2130
  3.4900          -0.4190
  3.4917          -0.3570
  3.4933          -0.2870
  3.4950          -0.1770
  3.4967          -0.2060
  3.4983          -0.3600
  3.5000          -0.5010
  3.5017          -0.8720
  3.5033          -0.9440
  3.5050          -0.9150
  3.5067          -0.8480
  3.5083          -0.6960
  3.5100          -0.6470
  3.5117          -0.5700
  3.5133          -0.6400
  3.5150          -0.6220
  3.5167          -0.8270
  3.5183          -0.9180
  3.5200          -1.0280
  3.5217          -1.0400
  3.5233          -0.9920
  3.5250          -1.0520
  3.5267          -0.9580
  3.5283          -1.1220
  3.5300          -1.0910
  3.5317          -0.9090
  3.5333          -0.8010
  3.5350          -0.5690
  3.5367          -0.6690
  3.5383          -0.7920
  3.5400          -1.2980
  3.5417          -1.3760
  3.5433          -1.3600
  3.5450          -1.2180
  3.5467          -0.8500
  3.5483          -0.9240
  3.5500          -0.8610
  3.5517          -1.2290
  3.5533          -1.1430
  3.5550          -1.0890
  3.5567          -0.9540
  3.5583          -0.8770
  3.5600          -1.1260
  3.5617          -1.1730
  3.5633          -1.5110
  3.5650          -1.5950
  3.5667          -1.4860
  3.5683          -1.4100
  3.5700          -1.0840
  3.5717          -0.9580
  3.5733          -0.8330
  3.5750          -0.9100
  3.5767          -0.9510
  3.5783          -1.2420
  3.5800          -1.2440
  3.5817          -1.1330
  3.5833          -1.1780
  3.5850          -1.1380
  3.5867          -1.3000
  3.5883          -1.2910
  3.5900          -1.3280
  3.5917          -1.1390
  3.5933          -0.8670
  3.5950          -0.8190
  3.5967          -0.6720
  3.5983          -0.9910
  3.6000          -1.2880
  3.6017          -1.4830
  3.6033          -1.4580
  3.6050          -1.3540
  3.6067          -1.1490
  3.6083          -0.9950
  3.6100          -1.1280
  3.6117          -1.0220
  3.6133          -1.0840
  3.6150          -1.0040
  3.6167          -0.8350
  3.6183          -0.7180
  3.6200          -0.7960
  3.6217          -1.2190
  3.6233          -1.2140
  3.6250          -1.5730
  3.6267          -1.6200
  3.6283          -1.3060
  3.6300          -1.2340
  3.6317          -0.9460
  3.6333          -0.7620
  3.6350          -0.6010
  3.6367          -0.8770
  3.6383          -0.8590
  3.6400          -1.1460
  3.6417          -1.3080
  3.6433          -1.0320
  3.6450          -1.1050
  3.6467          -1.0400
  3.6483          -1.1510
  3.6500          -1.1680
  3.6517          -1.0980
  3.6533          -0.9020
  3.6550          -0.6490
  3.6567          -0.7660
  3.6583          -0.8140
  3.6600          -1.0590
  3.6617          -1.1560
  3.6633          -1.2700
  3.6650          -1.1940
  3.6667          -1.0170
  3.6683          -0.9480
  3.6700          -0.6790
  3.6717          -0.9290
  3.6733          -0.9100
  3.6750          -0.9120
  3.6767          -0.8790
  3.6783          -0.6130
  3.6800          -0.7570
  3.6817          -0.8510
  3.6833          -1.1500
  3.6850          -1.2950
  3.6867          -1.1800
  3.6883          -1.1530
  3.6900          -0.7480
  3.6917          -0.7590
  3.6933          -0.6540
  3.6950          -1.0500
  3.6967          -0.9330
  3.6983          -1.0870
  3.7000          -1.0770
  3.7017          -0.9050
  3.7033          -1.1590
  3.7050          -1.0600
  3.7067          -1.1860
  3.7083          -1.1100
  3.7100          -1.3790
  3.7117          -1.1280
  3.7133          -0.9610
  3.7150          -0.6210
  3.7167          -0.3640
  3.7183          -0.5610
  3.7200          -0.6280
  3.7217          -1.0320
  3.7233          -1.1620
  3.7250          -1.2070
  3.7267          -1.0260
  3.7283          -0.9330
  3.7300          -0.9230
  3.7317          -0.7600
  3.7333          -0.9710
  3.7350          -0.8210
  3.7367          -0.4930
  3.7383          -0.3560
  3.7400          -0.1210
  3.7417          -0.5250
  3.7433          -0.6490
  3.7450          -0.8630
  3.7467          -0.9600
  3.7483          -0.6300
  3.7500          -0.6940
  3.7517          -0.3990
  3.7533          -0.3410
  3.7550          -0.3910
  3.7567          -0.5110
  3.7583          -0.5880
  3.7600          -0.4670
  3.7617          -0.4710
  3.7633          -0.4890
  3.7650          -0.6310
  3.7667          -0.5270
  3.7683          -0.6910
  3.7700          -0.6360
  3.7717          -0.7380
  3.7733          -0.7500
  3.7750          -0.3240
  3.7767          -0.1680
  3.7783          -0.0360
  3.7800          -0.3140
  3.7817          -0.5150
  3.7833          -0.8200
  3.7850          -0.8610
  3.7867          -0.6980
  3.7883          -0.7170
  3.7900          -0.6010
  3.7917          -0.5660
  3.7933          -0.6100
  3.7950          -0.6070
  3.7967          -0.5410
  3.7983          -0.2690
  3.8000          -0.3140
  3.8017          -0.2010
  3.8033          -0.4290
  3.8050          -0.7100
  3.8067          -0.7780
  3.8083          -0.9280
  3.8100          -0.7480
  3.8117          -0.7090
  3.8133          -0.5180
  3.8150          -0.4840
  3.8167          -0.5110
  3.8183          -0.3940
  3.8200          -0.4070
  3.8217          -0.3000
  3.8233          -0.4280
  3.8250          -0.5670
  3.8267          -0.7040
  3.8283          -0.8100
  3.8300          -0.9000
  3.8317          -0.9710
  3.8333          -1.0170
  3.8350          -0.7500
  3.8367          -0.5010
  3.8383          -0.3460
  3.8400          -0.4520
  3.8417          -0.6640
  3.8433          -0.8290
  3.8450          -0.9140
  3.8467          -0.9130
  3.8483          -0.8520
  3.8500          -0.6770
  3.8517          -0.9000
  3.8533          -0.8660
  3.8550          -0.8760
  3.8567          -0.7570
  3.8583          -0.6390
  3.8600          -0.2080
  3.8617          -0.3140
  3.8633          -0.5190
  3.8650          -0.7830
  3.8667          -1.1890
  3.8683          -1.1000
  3.8700          -1.1580
  3.8717          -0.7910
  3.8733          -0.8710
  3.8750          -0.7440
  3.8767          -0.7460
  3.8783          -0.7670
  3.8800          -0.4040
  3.8817          -0.5220
  3.8833          -0.3080
  3.8850          -0.4580
  3.8867          -0.7750
  3.8883          -0.9570
  3.8900          -1.2000
  3.8917          -0.9400
  3.8933          -0.9360
  3.8950          -0.6300
  3.8967          -0.5940
  3.8983          -0.8830
  3.9000          -0.7620
  3.9017          -0.9130
  3.9033          -0.7760
  3.9050          -0.9280
  3.9067          -0.8390
  3.9083          -1.0070
  3.9100          -0.9320
  3.9117          -0.8910
  3.9133          -1.2910
  3.9150          -1.0750
  3.9167          -1.1560
  3.9183          -0.7430
  3.9200          -0.5470
  3.9217          -0.3380
  3.9233          -0.4450
  3.9250          -0.7070
  3.9267          -0.9330
  3.9283          -1.2260
  3.9300          -0.9630
  3.9317          -0.9920
  3.9333          -0.9200
  3.9350          -0.9580
  3.9367          -1.0920
  3.9383          -1.0320
  3.9400          -0.9630
  3.9417          -0.6280
  3.9433          -0.6280
  3.9450          -0.6920
  3.9467          -0.8220
  3.9483          -1.2130
  3.9500          -1.3830
  3.9517          -1.4070
  3.9533          -1.1160
  3.9550          -0.9920
  3.9567          -0.7370
  3.9583          -0.6700
  3.9600          -0.7680
  3.9617          -0.5580
  3.9633          -0.7570
  3.9650          -0.5530
  3.9667          -0.5660
  3.9683          -0.8040
  3.9700          -0.8880
  3.9717          -1.3160
  3.9733          -1.3300
  3.9750          -1.2940
  3.9767          -1.0200
  3.9783          -0.9430
  3.9800          -0.7200
  3.9817          -0.6650
  3.9833          -0.5530
  3.9850          -0.6040
  3.9867          -0.9270
  3.9883          -1.0420
  3.9900          -1.1490
  3.9917          -0.9800
  3.9933          -0.9640
  3.9950          -1.0430
  3.9967          -1.0930
  3.9983          -1.2300
  4.0000          -0.9830
  4.0017          -0.8890
  4.0033          -0.6190
  4.0050          -0.5440
  4.0067          -0.9310
  4.0083          -0.9030
  4.0100          -1.3080
  4.0117          -1.2560
  4.0133          -1.1650
  4.0150          -1.0180
  4.0167          -0.9020
  4.0183          -0.9990
  4.0200          -1.0030
  4.0217          -1.2300
  4.0233          -0.9880
  4.0250          -0.9730
  4.0267          -0.9420
  4.0283          -0.9550
  4.0300          -1.3580
  4.0317          -1.3860
  4.0333          -1.5860
  4.0350          -1.3500
  4.0367          -1.1220
  4.0383          -0.8620
  4.0400          -0.7560
  4.0417          -1.0850
  4.0433          -1.0610
  4.0450          -1.2150
  4.0467          -0.9890
  4.0483          -0.9280
  4.0500          -0.8560
  4.0517          -0.9070
  4.0533          -0.9220
  4.0550          -0.9680
  4.0567          -1.2450
  4.0583          -1.1690
  4.0600          -1.2710
  4.0617          -1.0680
  4.0633          -0.7790
  4.0650          -0.6090
  4.0667          -0.6450
  4.0683          -0.8730
  4.0700          -1.0150
  4.0717          -1.2480
  4.0733          -1.1570
  4.0750          -1.1100
  4.0767          -1.1370
  4.0783          -1.0980
  4.0800          -1.1640
  4.0817          -0.9990
  4.0833          -0.8320
  4.0850          -0.5420
  4.0867          -0.4260
  4.0883          -0.5630
  4.0900          -0.6900
  4.0917          -1.0370
  4.0933          -1.2450
  4.0950          -1.2120
  4.0967          -1.0650
  4.0983          -0.9270
  4.1000          -0.6560
  4.1017          -0.5780
  4.1033          -0.6350
  4.1050          -0.4310
  4.1067          -0.4750
  4.1083          -0.4950
  4.1100          -0.4370
  4.1117          -0.5860
  4.1133          -0.5530
  4.1150          -0.5740
  4.1167          -0.6350
  4.1183          -0.9260
  4.1200          -0.6920
  4.1217          -0.5380
  4.1233          -0.3960
  4.1250          -0.0130
  4.1267          -0.2890
  4.1283          -0.2780
  4.1300          -0.6430
  4.1317          -0.6770
  4.1333          -0.6270
  4.1350          -0.4000
  4.1367          -0.3060
  4.1383          -0.3870
  4.1400          -0.3840
  4.1417          -0.6370
  4.1433          -0.4120
  4.1450          -0.2520
  4.1467           0.0300
  4.1483           0.1030
  4.1500          -0.1710
  4.1517          -0.2880
  4.1533          -0.6140
  4.1550          -0.6710
  4.1567          -0.4450
  4.1583          -0.5200
  4.1600          -0.3020
  4.1617          -0.4570
  4.1633          -0.4160
  4.1650          -0.4520
  4.1667          -0.5220
  4.1683          -0.5060
  4.1700          -0.6070
  4.1717          -0.4480
  4.1733          -0.4890
  4.1750          -0.5180
  4.1767          -0.8260
  4.1783          -0.7460
  4.1800          -0.9490
  4.1817          -0.8650
  4.1833          -0.6710
  4.1850          -0.7460
  4.1867          -0.5180
  4.1883          -0.6900
  4.1900          -0.7330
  4.1917          -0.7980
  4.1933          -0.8930
  4.1950          -0.7740
  4.1967          -0.8690
  4.1983          -0.8440
  4.2000          -1.0740
  4.2017          -1.0480
  4.2033          -1.0530
  4.2050          -0.9110
  4.2067          -0.5100
  4.2083          -0.5120
  4.2100          -0.4850
  4.2117          -0.7530
  4.2133          -1.0200
  4.2150          -1.1860
  4.2167          -1.2730
  4.2183          -0.9880
  4.2200          -1.1580
  4.2217          -1.0440
  4.2233          -1.2280
  4.2250          -1.1430
  4.2267          -0.8720
  4.2283          -0.7960
  4.2300          -0.7700
  4.2317          -0.7580
  4.2333          -0.6050
  4.2350          -0.7800
  4.2367          -0.8120
  4.2383          -1.1590
  4.2400          -1.2600
  4.2417          -1.1300
  4.2433          -0.8870
  4.2450          -0.6870
  4.2467          -0.5990
  4.2483          -0.3840
  4.2500          -0.6390
  4.2517          -0.6770
  4.2533          -0.6900
  4.2550          -0.8120
  4.2567          -0.6500
  4.2583          -0.6510
  4.2600          -0.7280
  4.2617          -0.8340
  4.2633          -0.7570
  4.2650          -0.5960
  4.2667          -0.4150
  4.2683          -0.0180
  4.2700          -0.0630
  4.2717          -0.0920
  4.2733          -0.3120
  4.2750          -0.4910
  4.2767          -0.3800
  4.2783          -0.4150
  4.2800          -0.1810
  4.2817          -0.3110
  4.2833          -0.2450
  4.2850          -0.2710
  4.2867          -0.1260
  4.2883           0.2860
  4.2900           0.3460
  4.2917           0.4360
  4.2933           0.3120
  4.2950           0.2090
  4.2967          -0.1190
  4.2983          -0.2540
  4.3000          -0.4400
  4.3017          -0.3380
  4.3033          -0.0740
  4.3050           0.0140
  4.3067           0.2510
  4.3083           0.1290
  4.3100           0.1290
  4.3117           0.0760
  4.3133           0.0580
  4.3150           0.3590
  4.3167           0.3220
  4.3183           0.3220
  4.3200           0.0860
  4.3217          -0.1070
  4.3233          -0.1010
  4.3250          -0.0270
  4.3267           0.4370
  4.3283           0.5070
  4.3300           0.6700
  4.3317           0.6930
  4.3333           0.5130
  4.3350           0.7080
  4.3367           0.8150
  4.3383           1.2260
  4.3400           1.2860
  4.3417           1.4750
  4.3433           1.5360
  4.3450           1.8440
  4.3467           2.4180
  4.3483           2.9540
  4.3500           3.7500
  4.3517           4.1620
  4.3533           4.5780
  4.3550           4.8360
  4.3567           5.2110
  4.3583           5.6630
  4.3600           6.1720
  4.3617           6.8820
  4.3633           7.4660
  4.3650           8.3950
  4.3667           9.3490
  4.3683          10.0670
  4.3700          10.8060
  4.3717          11.3390
  4.3733          11.8710
  4.3750          12.4770
  4.3767          13.3900
  4.3783          13.9590
  4.3800          14.2680
  4.3817          14.4860
  4.3833          14.4110
  4.3850          14.8530
  4.3867          15.3410
  4.3883          16.1370
  4.3900          16.8120
  4.3917          17.3690
  4.3933          17.8610
  4.3950          18.2530
  4.3967          18.8580
  4.3983          19.2340
  4.4000          19.9070
  4.4017          20.2450
  4.4033          20.8000
  4.4050          21.5600
  4.4067          22.6680
  4.4083          23.9510
  4.4100          25.1900
  4.4117          26.5420
  4.4133          27.7890
  4.4150          28.9500
  4.4167          30.3450
  4.4183          31.3630
  4.4200          32.5480
  4.4217          33.6890
  4.4233          34.8120
  4.4250          35.8430
  4.4267          36.4860
  4.4283          37.1450
  4.4300          37.1240
  4.4317          37.7530
  4.4333          37.7450
  4.4350          37.6250
  4.4367          37.5660
  4.4383          37.2680
  4.4400          37.7960
  4.4417          38.3700
  4.4433          38.9140
  4.4450          38.7900
  4.4467          39.2090
  4.4483          39.8150
  4.4500          40.5320
  4.4517          40.8090
  4.4533          39.9300
  4.4550          39.6380
  4.4567          39.8450
  4.4583          40.9450
  4.4600          42.6130
  4.4617          44.9380
  4.4633          47.7450
  4.4650          50.0290
  4.4667          51.2520
  4.4683          51.1360
  4.4700          50.6170
  4.4717          50.2820
  4.4733          50.4520
  4.4750          50.7310
  4.4767          50.8510
  4.4783          51.5550
  4.4800          51.7170
  4.4817          52.3230
  4.4833          52.8610
  4.4850          53.4760
  4.4867          53.9450
  4.4883          53.5370
  4.4900          53.5230
  4.4917          53.4120
  4.4933          54.2100
  4.4950          55.0130
  4.4967          55.4080
  4.4983          55.3530
  4.5000          54.7550
  4.5017          54.7040
  4.5033          54.5950
  4.5050          55.6040
  4.5067          57.1670
  4.5083          58.3950
  4.5100          59.7550
  4.5117          61.3030
  4.5133          63.0530
  4.5150          65.5630
  4.5167          68.1760
  4.5183          69.3450
  4.5200          69.4020
  4.5217          69.5880
  4.5233          69.7450
  4.5250          70.2970
  4.5267          71.0020
  4.5283          71.5600
  4.5300          72.9440
  4.5317          74.8470
  4.5333          76.8750
  4.5350          77.7840
  4.5367          77.9300
  4.5383          76.4630
  4.5400          74.1850
  4.5417          71.9230
  4.5433          71.3990
  4.5450          73.3450
  4.5467          76.2040
  4.5483          78.7270
  4.5500          80.0670
  4.5517          81.4700
  4.5533          83.0110
  4.5550          84.2370
  4.5567          84.0280
  4.5583          83.3080
  4.5600          84.1280
  4.5617          85.6680
  4.5633          87.7000
  4.5650          88.9510
  4.5667          88.5890
  4.5683          88.3490
  4.5700          87.6180
  4.5717          86.0890
  4.5733          85.2100
  4.5750          85.6650
  4.5767          87.2420
  4.5783          88.6290
  4.5800          89.9480
  4.5817          91.2970
  4.5833          93.7160
  4.5850          95.8210
  4.5867          96.6010
  4.5883          96.0970
  4.5900          94.8910
  4.5917          95.0240
  4.5933          95.8200
  4.5950          97.1600
  4.5967          98.5910
  4.5983         100.1030
  4.6000         101.0280
  4.6017         100.6470
  4.6033          99.5750
  4.6050          97.5280
  4.6067          96.4420
  4.6083          96.3690
  4.6100          97.3680
  4.6117          98.2110
  4.6133          98.0790
  4.6150          98.2020
  4.6167          98.2340
  4.6183          99.4790
  4.6200         101.9100
  4.6217         103.8700
  4.6233         106.4790
  4.6250         109.5300
  4.6267         111.1900
  4.6283         110.6820
  4.6300         109.3850
  4.6317         107.9390
  4.6333         107.1680
  4.6350         106.7200
  4.6367         105.1920
  4.6383         103.8030
  4.6400         103.9310
  4.6417         105.8970
  4.6433         108.4130
  4.6450         112.3340
  4.6467         117.7140
  4.6483         122.3780
  4.6500         125.6670
  4.6517         125.7490
  4.6533         124.1780
  4.6550         123.8640
  4.6567         124.2250
  4.6583         125.1850
  4.6600         125.1360
  4.6617         125.0510
  4.6633         126.2250
  4.6650         128.9930
  4.6667         132.3870
  4.6683         134.2530
  4.6700         133.8680
  4.6717         132.0210
  4.6733         130.5960
  4.6750         130.1860
  4.6767         131.1000
  4.6783         132.4540
  4.6800         133.5200
  4.6817         133.5800
  4.6833         132.2420
  4.6850         130.4660
  4.6867         128.8580
  4.6883         128.7550
  4.6900         129.2360
  4.6917         129.1410
  4.6933         128.1240
  4.6950         126.6970
  4.6967         126.8460
  4.6983         128.1440
  4.7000         130.6670
  4.7017         132.6010
  4.7033         132.2670
  4.7050         131.6580
  4.7067         130.9830
  4.7083         131.0650
  4.7100         131.9170
  4.7117         133.4230
  4.7133         135.4330
  4.7150         137.2060
  4.7167         138.8820
  4.7183         139.2250
  4.7200         139.8400
  4.7217         140.8090
  4.7233         141.3380
  4.7250         140.2850
  4.7267         138.6700
  4.7283         138.7020
  4.7300         140.9020
  4.7317         145.3320
  4.7333         149.2680
  4.7350         151.3130
  4.7367         152.1430
  4.7383         151.8940
  4.7400         153.0910
  4.7417         154.3920
  4.7433         154.0580
  4.7450         152.0380
  4.7467         148.9280
  4.7483         147.2110
  4.7500         148.7340
  4.7517         151.0740
  4.7533         152.2370
  4.7550         152.7560
  4.7567         152.8890
  4.7583         153.6760
  4.7600         155.7200
  4.7617         157.9050
  4.7633         159.0930
  4.7650         159.6170
  4.7667         158.8610
  4.7683         156.6580
  4.7700         156.0320
  4.7717         156.6660
  4.7733         159.6250
  4.7750         162.7500
  4.7767         162.8310
  4.7783         160.7660
  4.7800         157.1790
  4.7817         156.6640
  4.7833         157.4050
  4.7850         158.8130
  4.7867         159.9430
  4.7883         160.6140
  4.7900         162.4300
  4.7917         164.8090
  4.7933         165.9720
  4.7950         166.4410
  4.7967         167.7140
  4.7983         169.4350
  4.8000         170.9440
  4.8017         170.8120
  4.8033         171.0550
  4.8050         173.6850
  4.8067         177.3220
  4.8083         178.6450
  4.8100         176.0140
  4.8117         171.9430
  4.8133         170.8450
  4.8150         172.9450
  4.8167         177.3060
  4.8183         182.2580
  4.8200         185.6750
  4.8217         187.9580
  4.8233         188.9160
  4.8250         190.9160
  4.8267         196.3970
  4.8283         203.3290
  4.8300         206.5100
  4.8317         204.6180
  4.8333         198.4670
  4.8350         190.4890
  4.8367         182.3310
  4.8383         172.7600
  4.8400         164.8430
  4.8417         159.4910
  4.8433         158.2720
  4.8450         160.8830
  4.8467         164.6830
  4.8483         170.7070
  4.8500         177.5560
  4.8517         183.6290
  4.8533         186.3650
  4.8550         185.1490
  4.8567         180.9630
  4.8583         176.5800
  4.8600         174.5640
  4.8617         175.6040
  4.8633         177.9960
  4.8650         179.1870
  4.8667         180.3020
  4.8683         182.7600
  4.8700         187.7120
  4.8717         194.8080
  4.8733         199.6930
  4.8750         202.0010
  4.8767         202.5300
  4.8783         203.8310
  4.8800         206.3850
  4.8817         207.7620
  4.8833         208.5670
  4.8850         207.2140
  4.8867         204.8910
  4.8883         201.8830
  4.8900         199.6600
  4.8917         198.8640
  4.8933         199.3170
  4.8950         201.5390
  4.8967         204.6950
  4.8983         208.8980
  4.9000         213.8340
  4.9017         218.2760
  4.9033         219.1220
  4.9050         216.8610
  4.9067         212.9550
  4.9083         208.4640
  4.9100         207.3760
  4.9117         210.0200
  4.9133         214.8810
  4.9150         220.5240
  4.9167         225.7430
  4.9183         230.5510
  4.9200         234.9030
  4.9217         237.4550
  4.9233         236.6070
  4.9250         234.0890
  4.9267         231.5880
  4.9283         232.2530
  4.9300         235.3700
  4.9317         236.7400
  4.9333         236.7190
  4.9350         235.9480
  4.9367         237.6960
  4.9383         241.4000
  4.9400         240.5750
  4.9417         235.7620
  4.9433         228.3640
  4.9450         223.6830
  4.9467         226.9810
  4.9483         234.3030
  4.9500         240.2230
  4.9517         242.9600
  4.9533         241.3130
  4.9550         236.8290
  4.9567         234.5780
  4.9583         233.1590
  4.9600         232.2230
  4.9617         230.6350
  4.9633         229.7030
  4.9650         231.7020
  4.9667         235.1910
  4.9683         240.2350
  4.9700         245.4830
  4.9717         250.2850
  4.9733         255.9200
  4.9750         258.9450
  4.9767         260.1870
  4.9783         258.5320
  4.9800         229.9810
  4.9817         166.7300
  4.9833         100.0790
  4.9850          36.9000
  4.9867           9.9790
  4.9883           8.7670
  4.9900           8.3730
  4.9917           8.0210
  4.9933           7.1790
  4.9950           6.1970
  4.9967           5.8390
  4.9983           5.4810
  5.0000           6.0000
  5.0017           6.4620
  5.0033           7.2110
  5.0050           7.4590
  5.0067           7.4830
  5.0083           6.9730
  5.0100           6.1160
  5.0117           5.3440
  5.0133           4.3250
  5.0150           3.6890
  5.0167           2.7430
  5.0183           1.9480
  5.0200           1.2420
  5.0217           0.5950
  5.0233           0.3660
  5.0250           0.2730
  5.0267           0.2660
  5.0283           0.2340
  5.0300          -0.0470
  5.0317          -0.1340
  5.0333          -0.4470
  5.0350          -0.4230
  5.0367          -0.5170
  5.0383          -0.5710
  5.0400          -0.5930
  5.0417          -0.7900
  5.0433          -0.7370
  5.0450          -0.8780
  5.0467          -0.6260
  5.0483          -0.5200
  5.0500          -0.2800
  5.0517          -0.2700
  5.0533          -0.6580
  5.0550          -0.7220
  5.0567          -0.8410
  5.0583          -0.6890
  5.0600          -0.6020
  5.0617          -0.4420
  5.0633          -0.1740
  5.0650          -0.4480
  5.0667          -0.4200
  5.0683          -0.3720
  5.0700          -0.2010
  5.0717           0.3350
  5.0733           0.5950
  5.0750           0.6530
  5.0767           0.7830
  5.0783           0.8500
  5.0800           0.6660
  5.0817           0.8830
  5.0833           0.9900
  5.0850           1.5390
  5.0867           2.2620
  5.0883           2.7580
  5.0900           3.4300
  5.0917           3.7010
  5.0933           4.2000
  5.0950           4.4140
  5.0967           4.7340
  5.0983           4.9010
  5.1000           4.9760
  5.1017           5.1180
  5.1033           4.9680
  5.1050           4.9710
  5.1067           4.9250
  5.1083           4.9020
  5.1100           4.7310
  5.1117           4.4410
  5.1133           3.9930
  5.1150           3.1980
  5.1167           2.7310
  5.1183           2.3780
  5.1200           2.0280
  5.1217           1.9040
  5.1233           1.4520
  5.1250           1.1850
  5.1267           0.7660
  5.1283           0.7280
  5.1300           0.6940
  5.1317           0.6270
  5.1333           0.8740
  5.1350           0.4250
  5.1367           0.2580
  5.1383          -0.1550
  5.1400          -0.4580
  5.1417          -0.4060
  5.1433          -0.3940
  5.1450          -0.3220
  5.1467          -0.6520
  5.1483          -0.7090
  5.1500          -0.7670
  5.1517          -0.7170
  5.1533          -0.4290
  5.1550          -0.4730
  5.1567          -0.6140
  5.1583          -0.7690
  5.1600          -0.9720
  5.1617          -1.5040
  5.1633          -1.5270
  5.1650          -1.4060
  5.1667          -1.3110
  5.1683          -0.6870
  5.1700          -0.6170
  5.1717          -0.4290
  5.1733          -0.6640
  5.1750          -0.6900
  5.1767          -0.9020
  5.1783          -0.9610
  5.1800          -0.6440
  5.1817          -0.7580
  5.1833          -0.6160
  5.1850          -0.8390
  5.1867          -0.8930
  5.1883          -0.9880
  5.1900          -0.8400
  5.1917          -0.4820
  5.1933          -0.3610
  5.1950          -0.1590
  5.1967          -0.4570
  5.1983          -0.5560
  5.2000          -0.6070
  5.2017          -0.6050
  5.2033          -0.4720
  5.2050          -0.5260
  5.2067          -0.6010
  5.2083          -0.8780
  5.2100          -0.9660
  5.2117          -0.9150
  5.2133          -0.7680
  5.2150          -0.5560
  5.2167          -0.6230
  5.2183          -0.7220
  5.2200          -1.1400
  5.2217          -1.1630
  5.2233          -1.1090
  5.2250          -1.1030
  5.2267          -0.7730
  5.2283          -0.9720
  5.2300          -0.9230
  5.2317          -1.0410
  5.2333          -0.9260
  5.2350          -0.5870
  5.2367          -0.4100
  5.2383          -0.1370
  5.2400          -0.2240
  5.2417          -0.2580
  5.2433          -0.4090
  5.2450          -0.3920
  5.2467          -0.1060
  5.2483           0.1150
  5.2500           0.3820
  5.2517           0.5260
  5.2533           0.6510
  5.2550           0.8020
  5.2567           0.9680
  5.2583           1.5180
  5.2600           1.6530
  5.2617           1.8010
  5.2633           1.7880
  5.2650           1.7380
  5.2667           1.7870
  5.2683           1.8630
  5.2700           2.3360
  5.2717           2.5900
  5.2733           2.9950
  5.2750           2.9590
  5.2767           2.6330
  5.2783           2.3850
  5.2800           2.2090
  5.2817           2.1480
  5.2833           1.9740
  5.2850           1.7300
  5.2867           1.3150
  5.2883           1.3100
  5.2900           0.9260
  5.2917           0.5560
  5.2933           0.2480
  5.2950           0.0630
  5.2967           0.2980
  5.2983           0.3870
  5.3000           0.3230
  5.3017           0.1530
  5.3033          -0.1940
  5.3050          -0.3500
  5.3067          -0.4930
  5.3083          -0.4240
  5.3100          -0.4840
  5.3117          -0.6150
  5.3133          -0.5510
  5.3150          -0.7640
  5.3167          -0.5410
  5.3183          -0.4650
  5.3200          -0.3590
  5.3217          -0.4670
  5.3233          -0.5000
  5.3250          -0.6150
  5.3267          -0.8260
  5.3283          -0.6230
  5.3300          -0.5400
  5.3317          -0.0610
  5.3333           0.1110
  5.3350           0.2500
  5.3367           0.3820
  5.3383           0.5870
  5.3400           1.0850
  5.3417           1.3860
  5.3433           1.8730
  5.3450           2.0470
  5.3467           2.1660
  5.3483           2.4320
  5.3500           2.6420
  5.3517           3.1550
  5.3533           3.5990
  5.3550           4.0510
  5.3567           4.3720
  5.3583           4.0930
  5.3600           4.2160
  5.3617           3.8550
  5.3633           4.0610
  5.3650           4.1970
  5.3667           4.2220
  5.3683           4.2400
  5.3700           3.8800
  5.3717           3.8950
  5.3733           3.6070
  5.3750           3.6800
  5.3767           3.6830
  5.3783           3.8450
  5.3800           3.8980
  5.3817           3.9950
  5.3833           3.6760
  5.3850           3.8720
  5.3867           3.5680
  5.3883           3.0150
  5.3900           2.8370
  5.3917           1.9070
  5.3933           1.5430
  5.3950           1.2800
  5.3967           0.9850
  5.3983           0.9520
  5.4000           0.8550
  5.4017           1.0080
  5.4033           0.7080
  5.4050           0.3750
  5.4067           0.1960
  5.4083          -0.3520
  5.4100          -0.3730
  5.4117          -0.3230
  5.4133          -0.1640
  5.4150          -0.0380
  5.4167           0.0470
  5.4183           0.2090
  5.4200           0.2040
  5.4217           0.5940
  5.4233           0.5150
  5.4250           0.8600
  5.4267           0.9990
  5.4283           1.0440
  5.4300           1.1890
  5.4317           1.3990
  5.4333           2.0000
  5.4350           2.3350
  5.4367           2.7520
  5.4383           2.9700
  5.4400           2.6270
  5.4417           2.8060
  5.4433           2.8320
  5.4450           2.8400
  5.4467           2.8260
  5.4483           2.9130
  5.4500           2.8500
  5.4517           2.3960
  5.4533           2.4640
  5.4550           2.3600
  5.4567           2.5870
  5.4583           2.9270
  5.4600           2.9420
  5.4617           2.8840
  5.4633           2.5050
  5.4650           2.3890
  5.4667           2.1290
  5.4683           2.0710
  5.4700           1.8600
  5.4717           1.8480
  5.4733           1.7510
  5.4750           1.6240
  5.4767           1.7320
  5.4783           1.2720
  5.4800           1.1980
  5.4817           1.0980
  5.4833           0.9810
  5.4850           1.1900
  5.4867           1.1410
  5.4883           0.9220
  5.4900           0.6070
  5.4917           0.4690
  5.4933           0.4190
  5.4950           0.3350
  5.4967           0.3920
  5.4983           0.3730
  5.5000           0.5030
  5.5017           0.3440
  5.5033           0.4670
  5.5050           0.6330
  5.5067           0.7320
  5.5083           1.1010
  5.5100           0.9900
  5.5117           0.9210
  5.5133           0.7450
  5.5150           0.9820
  5.5167           1.4130
  5.5183           2.1190
  5.5200           2.8090
  5.5217           3.1650
  5.5233           3.8050
  5.5250           4.1850
  5.5267           4.9130
  5.5283           5.6960
  5.5300           6.3310
  5.5317           6.8290
  5.5333           7.2310
  5.5350           7.8340
  5.5367           8.3390
  5.5383           9.0920
  5.5400          10.0420
  5.5417          10.6440
  5.5433          11.2800
  5.5450          11.4580
  5.5467          11.6570
  5.5483          11.6240
  5.5500          11.8030
  5.5517          12.1320
  5.5533          12.1290
  5.5550          12.4000
  5.5567          12.3980
  5.5583          12.5240
  5.5600          12.5320
  5.5617          12.7000
  5.5633          12.9110
  5.5650          13.4040
  5.5667          13.9240
  5.5683          13.9960
  5.5700          14.2020
  5.5717          14.1160
  5.5733          14.6030
  5.5750          15.4140
  5.5767          16.7070
  5.5783          18.4110
  5.5800          20.0550
  5.5817          21.2960
  5.5833          21.5550
  5.5850          21.7970
  5.5867          22.0430
  5.5883          23.0360
  5.5900          24.2880
  5.5917          25.2320
  5.5933          26.3020
  5.5950          27.0280
  5.5967          28.0220
  5.5983          29.3710
  5.6000          30.6040
  5.6017          31.8600
  5.6033          32.1090
  5.6050          32.3720
  5.6067          32.5500
  5.6083          33.4810
  5.6100          34.6900
  5.6117          35.6740
  5.6133          36.7190
  5.6150          36.8140
  5.6167          36.9630
  5.6183          37.1180
  5.6200          37.8450
  5.6217          39.2250
  5.6233          40.8970
  5.6250          42.6730
  5.6267          44.8400
  5.6283          47.6570
  5.6300          50.0500
  5.6317          51.9890
  5.6333          52.9420
  5.6350          53.0530
  5.6367          52.9110
  5.6383          52.5600
  5.6400          52.7790
  5.6417          53.5460
  5.6433          55.3480
  5.6450          57.0310
  5.6467          57.6040
  5.6483          57.5970
  5.6500          56.7270
  5.6517          56.3890
  5.6533          57.0520
  5.6550          58.3850
  5.6567          59.9490
  5.6583          62.0710
  5.6600          64.6410
  5.6617          66.2780
  5.6633          67.4510
  5.6650          67.8790
  5.6667          68.7480
  5.6683          69.7790
  5.6700          70.4740
  5.6717          71.0760
  5.6733          72.0450
  5.6750          74.4730
  5.6767          76.7960
  5.6783          78.3850
  5.6800          78.9200
  5.6817          79.1780
  5.6833          80.3820
  5.6850          81.2780
  5.6867          82.7530
  5.6883          85.1330
  5.6900          87.5730
  5.6917          90.4900
  5.6933          92.5970
  5.6950          93.8570
  5.6967          94.5540
  5.6983          95.5480
  5.7000          97.2100
  5.7017          98.9370
  5.7033          97.4100
  5.7050          86.9710
  5.7067          66.7270
  5.7083          42.0870
  5.7100          20.6340
  5.7117           7.3320
  5.7133           1.9840
  5.7150           0.1080
  5.7167          -0.6180
  5.7183          -0.7330
  5.7200          -0.8540
  5.7217          -0.4340
  5.7233          -0.3480
  5.7250          -0.0560
  5.7267           0.0530
  5.7283           0.2760
  5.7300           0.8690
  5.7317           1.5160
  5.7333           2.4420
  5.7350           3.1130
  5.7367           3.6300
  5.7383           4.3290
  5.7400           5.0880
  5.7417           6.3310
  5.7433           7.5960
  5.7450           9.2090
  5.7467          10.3790
  5.7483          11.1270
  5.7500          12.2030
  5.7517          13.0770
  5.7533          14.4420
  5.7550          15.2270
  5.7567          15.8260
  5.7583          15.8380
  5.7600          15.8810
  5.7617          15.9470
  5.7633          15.2640
  5.7650          14.5810
  5.7667          13.1830
  5.7683          11.6660
  5.7700           9.8290
  5.7717           7.8210
  5.7733           5.6250
  5.7750           3.6330
  5.7767           2.1460
  5.7783           0.8230
  5.7800           0.3370
  5.7817          -0.1310
  5.7833          -0.3490
  5.7850          -0.6420
  5.7867          -0.8490
  5.7883          -0.9080
  5.7900          -0.9120
  5.7917          -0.6670
  5.7933          -0.4530
  5.7950          -0.4470
  5.7967          -0.4530
  5.7983          -0.7910
  5.8000          -0.8050
  5.8017          -0.8290
  5.8033          -0.6580
  5.8050          -0.5220
  5.8067          -0.5010
  5.8083          -0.4740
  5.8100          -0.8030
  5.8117          -0.6830
  5.8133          -0.7850
  5.8150          -0.4410
  5.8167          -0.4130
  5.8183          -0.7080
  5.8200          -0.8390
  5.8217          -1.1230
  5.8233          -0.9930
  5.8250          -1.0510
  5.8267          -0.6560
  5.8283          -0.6530
  5.8300          -0.8430
  5.8317          -0.7990
  5.8333          -1.1040
  5.8350          -1.0000
  5.8367          -0.8680
  5.8383          -0.9050
  5.8400          -0.8250
  5.8417          -0.6920
  5.8433          -0.7160
  5.8450          -0.9300
  5.8467          -1.0260
  5.8483          -1.2250
  5.8500          -0.9550
  5.8517          -0.7650
  5.8533          -0.6980
  5.8550          -0.5890
  5.8567          -0.7080
  5.8583          -0.7370
  5.8600          -0.8960
  5.8617          -0.6500
  5.8633          -0.6010
  5.8650          -0.3610
  5.8667          -0.3340
  5.8683          -0.3340
  5.8700          -0.2690
  5.8717          -0.1800
  5.8733           0.2790
  5.8750           0.4490
  5.8767           1.0280
  5.8783           1.2790
  5.8800           1.2630
  5.8817           1.3770
  5.8833           1.3300
  5.8850           1.5880
  5.8867           1.9460
  5.8883           2.2680
  5.8900           2.5390
  5.8917           2.4560
  5.8933           2.6830
  5.8950           2.8220
  5.8967           3.0860
  5.8983           3.2880
  5.9000           3.1640
  5.9017           3.1260
  5.9033           3.1610
  5.9050           3.2880
  5.9067           3.1850
  5.9083           3.4900
  5.9100           3.8760
  5.9117           4.5190
  5.9133           5.1310
  5.9150           5.4450
  5.9167           5.5610
  5.9183           5.4930
  5.9200           5.5430
  5.9217           5.1660
  5.9233           5.1920
  5.9250           4.9920
  5.9267           4.5190
  5.9283           4.0900
  5.9300           3.1340
  5.9317           2.5630
  5.9333           2.0570
  5.9350           1.6630
  5.9367           1.2730
  5.9383           0.9180
  5.9400           0.6710
  5.9417           0.2350
  5.9433           0.0780
  5.9450          -0.2350
  5.9467          -0.3950
  5.9483          -0.4760
  5.9500          -0.6770
  5.9517          -0.6470
  5.9533          -1.0120
  5.9550          -0.9470
  5.9567          -0.8280
  5.9583          -0.7090
  5.9600          -0.4490
  5.9617          -0.8390
  5.9633          -1.0100
  5.9650          -1.3260
  5.9667          -1.3630
  5.9683          -1.1300
  5.9700          -0.9980
  5.9717          -0.9180
  5.9733          -0.8610
  5.9750          -0.7240
  5.9767          -0.9440
  5.9783          -0.8490
  5.9800          -1.1180
  5.9817          -1.0560
  5.9833          -0.9100
  5.9850          -0.8990
  5.9867          -0.8130
  5.9883          -1.0160
  5.9900          -1.1180
  5.9917          -1.2220
  5.9933          -1.1280
  5.9950          -0.8780
  5.9967          -0.7080
  5.9983          -0.5410
  6.0000          -0.8170
  6.0017          -0.7750
  6.0033          -0.9020
  6.0050          -0.9550
  6.0067          -0.6370
  6.0083          -0.7660
  6.0100          -0.6740
  6.0117          -0.8320
  6.0133          -0.8030
  6.0150          -0.8380
  6.0167          -0.6660
  6.0183          -0.3280
  6.0200          -0.2500
  6.0217          -0.0720
  6.0233          -0.2750
  6.0250          -0.2490
  6.0267          -0.3110
  6.0283          -0.2860
  6.0300          -0.2010
  6.0317          -0.3330
  6.0333          -0.2180
  6.0350          -0.3470
  6.0367          -0.3100
  6.0383          -0.4950
  6.0400          -0.3870
  6.0417          -0.0270
  6.0433           0.1210
  6.0450           0.6020
  6.0467           0.5630
  6.0483           0.4990
  6.0500           0.3900
  6.0517           0.4190
  6.0533           0.7550
  6.0550           1.1680
  6.0567           1.9450
  6.0583           2.2780
  6.0600           2.8110
  6.0617           3.1500
  6.0633           3.3680
  6.0650           3.7540
  6.0667           4.0770
  6.0683           4.3950
  6.0700           4.1740
  6.0717           4.0210
  6.0733           3.4910
  6.0750           3.3480
  6.0767           3.3200
  6.0783           3.0780
  6.0800           2.9390
  6.0817           2.5100
  6.0833           2.3210
  6.0850           1.9680
  6.0867           1.5490
  6.0883           1.4310
  6.0900           1.0410
  6.0917           0.7720
  6.0933           0.5050
  6.0950           0.0810
  6.0967          -0.0130
  6.0983          -0.1680
  6.1000          -0.1010
  6.1017          -0.0750
  6.1033           0.1710
  6.1050           0.1250
  6.1067           0.2350
  6.1083           0.0920
  6.1100          -0.0550
  6.1117          -0.1820
  6.1133          -0.3710
  6.1150           0.1190
  6.1167           0.0630
  6.1183           0.5150
  6.1200           0.2870
  6.1217           0.2880
  6.1233           0.3430
  6.1250           0.3880
  6.1267           0.6910
  6.1283           0.7410
  6.1300           0.7620
  6.1317           0.4540
  6.1333           0.2410
  6.1350           0.1400
  6.1367           0.2100
  6.1383           0.6170
  6.1400           0.8230
  6.1417           0.7980
  6.1433           0.8710
  6.1450           0.9810
  6.1467           1.2970
  6.1483           1.7080
  6.1500           2.2940
  6.1517           2.6160
  6.1533           2.8890
  6.1550           3.1970
  6.1567           3.4840
  6.1583           4.2420
  6.1600           4.9410
  6.1617           5.7800
  6.1633           6.1890
  6.1650           6.5880
  6.1667           6.8270
  6.1683           7.0980
  6.1700           7.5760
  6.1717           7.9710
  6.1733           8.7590
  6.1750           9.2080
  6.1767           9.9480
  6.1783          10.5250
  6.1800          11.0930
  6.1817          11.6660
  6.1833          12.3050
  6.1850          13.3090
  6.1867          14.2170
  6.1883          15.0480
  6.1900          15.2250
  6.1917          14.8510
  6.1933          14.3380
  6.1950          13.4710
  6.1967          12.6150
  6.1983          11.3820
  6.2000          10.3170
  6.2017           9.1730
  6.2033           7.8170
  6.2050           6.7700
  6.2067           5.3060
  6.2083           4.5550
  6.2100           3.4520
  6.2117           2.7350
  6.2133           1.8490
  6.2150           0.8360
  6.2167           0.3620
  6.2183          -0.2110
  6.2200           0.0500
  6.2217           0.0720
  6.2233           0.1680
  6.2250           0.2680
  6.2267           0.2690
  6.2283           0.5800
  6.2300           0.8780
  6.2317           1.1530
  6.2333           1.4100
  6.2350           1.9850
  6.2367           2.2960
  6.2383           2.8260
  6.2400           3.3180
  6.2417           3.6970
  6.2433           4.3300
  6.2450           4.8600
  6.2467           5.5920
  6.2483           6.0620
  6.2500           6.4030
  6.2517           6.5240
  6.2533           6.1580
  6.2550           6.0160
  6.2567           5.4850
  6.2583           5.0850
  6.2600           4.4510
  6.2617           3.6260
  6.2633           3.0430
  6.2650           2.1290
  6.2667           1.7940
  6.2683           1.3900
  6.2700           1.2400
  6.2717           0.8470
  6.2733           0.3740
  6.2750          -0.1310
  6.2767          -0.5320
  6.2783          -0.6510
  6.2800          -0.8200
  6.2817          -0.6870
  6.2833          -0.7500
  6.2850          -1.0090
  6.2867          -1.0360
  6.2883          -1.2880
  6.2900          -1.2190
  6.2917          -1.1400
  6.2933          -1.0570
  6.2950          -1.0590
  6.2967          -0.8630
  6.2983          -0.8860
  6.3000          -1.1500
  6.3017          -1.2330
  6.3033          -1.4470
  6.3050          -1.2240
  6.3067          -1.0390
  6.3083          -0.8810
  6.3100          -0.7790
  6.3117          -1.0210
  6.3133          -0.9760
  6.3150          -1.2060
  6.3167          -1.0670
  6.3183          -1.0960
  6.3200          -1.0170
  6.3217          -0.9360
  6.3233          -1.2330
  6.3250          -1.1510
  6.3267          -1.2680
  6.3283          -1.0420
  6.3300          -0.9040
  6.3317          -0.6190
  6.3333          -0.5820
  6.3350          -0.8700
  6.3367          -0.8780
  6.3383          -1.0580
  6.3400          -1.0020
  6.3417          -0.9270
  6.3433          -0.9570
  6.3450          -0.9780
  6.3467          -0.7340
  6.3483          -0.7250
  6.3500          -1.0460
  6.3517          -1.0280
  6.3533          -1.2340
  6.3550          -1.0360
  6.3567          -0.7180
  6.3583          -0.6750
  6.3600          -0.8730
  6.3617          -1.3290
  6.3633          -1.3060
  6.3650          -1.4260
  6.3667          -1.1770
  6.3683          -0.8580
  6.3700          -0.7690
  6.3717          -0.6650
  6.3733          -0.9270
  6.3750          -0.7960
  6.3767          -1.0530
  6.3783          -1.0170
  6.3800          -0.8900
  6.3817          -1.1210
  6.3833          -1.1670
  6.3850          -1.3360
  6.3867          -1.4040
  6.3883          -1.2180
  6.3900          -0.9420
  6.3917          -0.8230
  6.3933          -0.6800
  6.3950          -0.6240
  6.3967          -0.7940
  6.3983          -0.8780
  6.4000          -1.0370
  6.4017          -1.1340
  6.4033          -1.1460
  6.4050          -1.0730
  6.4067          -0.8920
  6.4083          -0.8530
  6.4100          -0.7950
  6.4117          -0.9180
  6.4133          -0.7690
  6.4150          -0.6420
  6.4167          -0.5510
  6.4183          -0.4310
  6.4200          -0.7640
  6.4217          -0.8510
  6.4233          -1.1720
  6.4250          -1.2750
  6.4267          -1.0810
  6.4283          -0.8710
  6.4300          -0.5890
  6.4317          -0.7600
  6.4333          -0.7520
  6.4350          -0.9370
  6.4367          -0.8120
  6.4383          -0.5510
  6.4400          -0.5410
  6.4417          -0.4510
  6.4433          -0.6720
  6.4450          -0.8550
  6.4467          -1.0000
  6.4483          -1.0020
  6.4500          -0.7410
  6.4517          -0.7360
  6.4533          -0.6360
  6.4550          -0.6710
  6.4567          -0.5490
  6.4583          -0.6360
  6.4600          -0.7460
  6.4617          -0.9660
  6.4633          -1.0720
  6.4650          -0.8780
  6.4667          -0.9410
  6.4683          -0.8300
  6.4700          -1.0520
  6.4717          -1.0970
  6.4733          -1.1690
  6.4750          -1.0780
  6.4767          -0.9120
  6.4783          -0.7480
  6.4800          -0.5900
  6.4817          -0.8020
  6.4833          -0.7950
  6.4850          -1.1210
  6.4867          -1.1790
  6.4883          -1.1860
  6.4900          -1.1750
  6.4917          -0.9710
  6.4933          -1.2190
  6.4950          -1.1170
  6.4967          -1.2420
  6.4983          -1.0780
  6.5000          -0.7680
  6.5017          -0.8130
  6.5033          -0.7530
  6.5050          -1.0860
  6.5067          -1.2200
  6.5083          -1.2240
  6.5100          -1.3040
  6.5117          -0.9190
  6.5133          -1.0370
  6.5150          -0.9420
  6.5167          -0.9640
  6.5183          -0.9070
  6.5200          -0.9980
  6.5217          -0.9480
  6.5233          -1.0600
  6.5250          -1.1900
  6.5267          -0.9470
  6.5283          -1.1550
  6.5300          -1.0350
  6.5317          -1.2140
  6.5333          -1.2160
  6.5350          -1.1130
  6.5367          -0.9550
  6.5383          -0.7280
  6.5400          -0.7430
  6.5417          -0.6430
  6.5433          -0.9730
  6.5450          -1.1700
  6.5467          -1.2120
  6.5483          -1.1980
  6.5500          -1.0170
  6.5517          -0.8990
  6.5533          -0.9150
  6.5550          -1.1820
  6.5567          -1.1220
  6.5583          -1.0530
  6.5600          -0.9950
  6.5617          -0.5750
  6.5633          -0.7220
  6.5650          -0.8610
  6.5667          -1.0500
  6.5683          -1.2710
  6.5700          -1.1740
  6.5717          -1.0810
  6.5733          -0.7350
  6.5750          -0.7410
  6.5767          -0.7310
  6.5783          -0.8000
  6.5800          -0.6300
  6.5817          -0.3900
  6.5833          -0.3320
  6.5850          -0.2180
  6.5867          -0.2070
  6.5883           0.1310
  6.5900           0.0480
  6.5917           0.1550
  6.5933           0.0550
  6.5950           0.1870
  6.5967           0.3970
  6.5983           0.6700
  6.6000           0.8560
  6.6017           0.8510
  6.6033           0.7580
  6.6050           0.2420
  6.6067           0.0790
  6.6083           0.1520
  6.6100           0.0110
  6.6117          -0.0610
  6.6133          -0.2930
  6.6150          -0.5030
  6.6167          -0.7340
  6.6183          -0.8320
  6.6200          -0.6730
  6.6217          -0.6500
  6.6233          -0.3930
  6.6250          -0.6060
  6.6267          -0.7540
  6.6283          -0.8810
  6.6300          -0.9540
  6.6317          -0.8140
  6.6333          -0.8330
  6.6350          -0.7060
  6.6367          -0.9280
  6.6383          -0.9700
  6.6400          -1.0420
  6.6417          -1.0360
  6.6433          -0.6090
  6.6450          -0.5270
  6.6467          -0.4650
  6.6483          -0.5560
  6.6500          -0.6080
  6.6517          -0.8870
  6.6533          -0.9540
  6.6550          -1.1190
  6.6567          -1.2360
  6.6583          -0.8770
  6.6600          -0.6700
  6.6617          -0.5770
  6.6633          -0.5920
  6.6650          -0.7430
  6.6667          -0.9450
  6.6683          -0.9390
  6.6700          -0.6730
  6.6717          -0.7530
  6.6733          -0.7430
  6.6750          -0.8960
  6.6767          -1.0930
  6.6783          -1.0820
  6.6800          -1.1320
  6.6817          -0.8880
  6.6833          -0.8400
  6.6850          -0.6770
  6.6867          -0.6910
  6.6883          -0.7350
  6.6900          -0.8180
  6.6917          -0.9250
  6.6933          -0.7980
  6.6950          -0.9480
  6.6967          -0.8000
  6.6983          -1.0080
  6.7000          -1.1150
  6.7017          -1.0470
  6.7033          -1.0360
  6.7050          -0.5040
  6.7067          -0.4450
  6.7083          -0.5070
  6.7100          -0.7060
  6.7117          -0.9200
  6.7133          -0.8900
  6.7150          -0.9040
  6.7167          -0.7070
  6.7183          -0.6200
  6.7200          -0.3840
  6.7217          -0.2850
  6.7233          -0.3360
  6.7250          -0.3700
  6.7267          -0.4530
  6.7283          -0.2940
  6.7300          -0.2780
  6.7317          -0.0560
  6.7333          -0.1930
  6.7350          -0.2190
  6.7367          -0.2850
  6.7383          -0.4650
  6.7400          -0.2670
  6.7417          -0.1680
  6.7433           0.2590
  6.7450           0.2090
  6.7467           0.4110
  6.7483           0.1750
  6.7500           0.0130
  6.7517           0.0980
  6.7533          -0.0930
  6.7550           0.1420
  6.7567          -0.0790
  6.7583          -0.3440
  6.7600          -0.6130
  6.7617          -0.7650
  6.7633          -0.6720
  6.7650          -0.5880
  6.7667          -0.3070
  6.7683          -0.2350
  6.7700          -0.4320
  6.7717          -0.5200
  6.7733          -0.7750
  6.7750          -0.7630
  6.7767          -0.8390
  6.7783          -0.8060
  6.7800          -0.8410
  6.7817          -0.7900
  6.7833          -0.8420
  6.7850          -0.9940
  6.7867          -0.8720
  6.7883          -1.0790
  6.7900          -0.8650
  6.7917          -0.9280
  6.7933          -0.7570
  6.7950          -0.7870
  6.7967          -0.9790
  6.7983          -0.9930
  6.8000          -1.2590
  6.8017          -1.1180
  6.8033          -1.0370
  6.8050          -0.7760
  6.8067          -0.7250
  6.8083          -0.6090
  6.8100          -0.6180
  6.8117          -0.7270
  6.8133          -0.4620
  6.8150          -0.4750
  6.8167          -0.3580
  6.8183          -0.5110
  6.8200          -0.7280
  6.8217          -0.9410
  6.8233          -0.8450
  6.8250          -0.5590
  6.8267          -0.5380
  6.8283          -0.2620
  6.8300          -0.1840
  6.8317          -0.2980
  6.8333          -0.1530
  6.8350          -0.2550
  6.8367          -0.1090
  6.8383          -0.1010
  6.8400           0.0850
  6.8417           0.1670
  6.8433           0.0320
  6.8450           0.2610
  6.8467           0.2650
  6.8483           0.7620
  6.8500           0.9360
  6.8517           1.1230
  6.8533           1.2350
  6.8550           0.8140
  6.8567           0.7560
  6.8583           0.4530
  6.8600           0.5180
  6.8617           0.4890
  6.8633           0.5260
  6.8650           0.3340
  6.8667           0.2970
  6.8683           0.1270
  6.8700          -0.0950
  6.8717          -0.2470
  6.8733          -0.4340
  6.8750          -0.3160
  6.8767          -0.3710
  6.8783          -0.4040
  6.8800          -0.6360
  6.8817          -0.9950
  6.8833          -1.0370
  6.8850          -1.0770
  6.8867          -1.0690
  6.8883          -0.9760
  6.8900          -0.9530
  6.8917          -1.0120
  6.8933          -1.0690
  6.8950          -0.8630
  6.8967          -0.9980
  6.8983          -0.8440
  6.9000          -0.8510
  6.9017          -1.1590
  6.9033          -1.2330
  6.9050          -1.5430
  6.9067          -1.3990
  6.9083          -1.3060
  6.9100          -0.8790
  6.9117          -0.7490
  6.9133          -0.6220
  6.9150          -0.7330
  6.9167          -0.9650
  6.9183          -0.9880
  6.9200          -1.0750
  6.9217          -0.9490
  6.9233          -1.0030
  6.9250          -1.1350
  6.9267          -1.2070
  6.9283          -1.3120
  6.9300          -1.1750
  6.9317          -1.0020
  6.9333          -0.8130
  6.9350          -0.6850
  6.9367          -0.4720
  6.9383          -0.5160
  6.9400          -0.7510
  6.9417          -0.8580
  6.9433          -1.3360
  6.9450          -1.3580
  6.9467          -1.3270
  6.9483          -1.0230
  6.9500          -0.8910
  6.9517          -0.9470
  6.9533          -0.9050
  6.9550          -1.3130
  6.9567          -0.9820
  6.9583          -0.9430
  6.9600          -0.8590
  6.9617          -0.8120
  6.9633          -1.0120
  6.9650          -1.1280
  6.9667          -1.4970
  6.9683          -1.3630
  6.9700          -1.3800
  6.9717          -1.0460
  6.9733          -0.7970
  6.9750          -0.9720
  6.9767          -0.9630
  6.9783          -1.0440
  6.9800          -0.8570
  6.9817          -0.8930
  6.9833          -0.7030
  6.9850          -0.8490
  6.9867          -1.2280
  6.9883          -1.3270
  6.9900          -1.4680
  6.9917          -1.2550
  6.9933          -1.1690
  6.9950          -1.0760
  6.9967          -0.8540
  6.9983          -1.2380
  7.0000          -1.1200
  7.0017          -1.2790
  7.0033          -1.1560
  7.0050          -0.9970
  7.0067          -1.0200
  7.0083          -0.8620
  7.0100          -1.3180
  7.0117          -1.4350
  7.0133          -1.4730
  7.0150          -1.2790
  7.0167          -1.0470
  7.0183          -0.7510
  7.0200          -0.7300
  7.0217          -1.1090
  7.0233          -1.2090
  7.0250          -1.3300
  7.0267          -1.3560
  7.0283          -1.3640
  7.0300          -1.1930
  7.0317          -1.1210
  7.0333          -0.9840
  7.0350          -1.0010
  7.0367          -1.1190
  7.0383          -1.0560
  7.0400          -1.0850
  7.0417          -0.8480
  7.0433          -0.7910
  7.0450          -0.8780
  7.0467          -0.8110
  7.0483          -1.1810
  7.0500          -1.1400
  7.0517          -1.2890
  7.0533          -1.1100
  7.0550          -0.8800
  7.0567          -0.9630
  7.0583          -0.8060
  7.0600          -1.1430
  7.0617          -1.0900
  7.0633          -1.0490
  7.0650          -0.9530
  7.0667          -0.8210
  7.0683          -0.8780
  7.0700          -0.8940
  7.0717          -1.1010
  7.0733          -1.0270
  7.0750          -1.0370
  7.0767          -0.9200
  7.0783          -0.8670
  7.0800          -0.9190
  7.0817          -0.8360
  7.0833          -0.9240
  7.0850          -0.9040
  7.0867          -0.9580
  7.0883          -0.9370
  7.0900          -0.9320
  7.0917          -1.1140
  7.0933          -1.1620
  7.0950          -1.5290
  7.0967          -1.4400
  7.0983          -1.2920
  7.1000          -1.1070
  7.1017          -0.7500
  7.1033          -0.6870
  7.1050          -0.5930
  7.1067          -0.7510
  7.1083          -0.9160
  7.1100          -1.2390
  7.1117          -1.2200
  7.1133          -1.2120
  7.1150          -0.9920
  7.1167          -0.7590
  7.1183          -0.9060
  7.1200          -0.8420
  7.1217          -0.9590
  7.1233          -0.8560
  7.1250          -0.6440
  7.1267          -0.4930
  7.1283          -0.5860
  7.1300          -0.8760
  7.1317          -1.0290
  7.1333          -1.2980
  7.1350          -1.1950
  7.1367          -1.0440
  7.1383          -1.0040
  7.1400          -0.8960
  7.1417          -1.0060
  7.1433          -0.9890
  7.1450          -1.0580
  7.1467          -1.0080
  7.1483          -0.8570
  7.1500          -0.8990
  7.1517          -0.7780
  7.1533          -1.0860
  7.1550          -1.1000
  7.1567          -1.2420
  7.1583          -1.0860
  7.1600          -0.8140
  7.1617          -0.6550
  7.1633          -0.4120
  7.1650          -0.5160
  7.1667          -0.3850
  7.1683          -0.3120
  7.1700          -0.1210
  7.1717           0.0690
  7.1733           0.1150
  7.1750           0.2200
  7.1767           0.0610
  7.1783           0.3340
  7.1800           0.3700
  7.1817           0.7320
  7.1833           1.3230
  7.1850           1.6510
  7.1867           2.2720
  7.1883           2.4710
  7.1900           2.7900
  7.1917           2.7090
  7.1933           2.7660
  7.1950           2.5580
  7.1967           2.4140
  7.1983           2.6700
  7.2000           2.4380
  7.2017           2.5980
  7.2033           2.5150
  7.2050           2.4870
  7.2067           2.4450
  7.2083           2.2580
  7.2100           2.1140
  7.2117           1.6700
  7.2133           1.3000
  7.2150           0.6220
  7.2167           0.3430
  7.2183          -0.0710
  7.2200          -0.2750
  7.2217          -0.2710
  7.2233          -0.3450
  7.2250          -0.2480
  7.2267          -0.3790
  7.2283          -0.3990
  7.2300          -0.6280
  7.2317          -0.8100
  7.2333          -0.6370
  7.2350          -0.7610
  7.2367          -0.8170
  7.2383          -1.0130
  7.2400          -1.1240
  7.2417          -0.9490
  7.2433          -0.8730
  7.2450          -0.3860
  7.2467          -0.4260
  7.2483          -0.4140
  7.2500          -0.5900
  7.2517          -0.7570
  7.2533          -0.5360
  7.2550          -0.4510
  7.2567          -0.2600
  7.2583          -0.4330
  7.2600          -0.5090
  7.2617          -0.6160
  7.2633          -0.4800
  7.2650          -0.2310
  7.2667          -0.0670
  7.2683           0.0880
  7.2700           0.1990
  7.2717           0.4050
  7.2733           0.1480
  7.2750           0.1120
  7.2767          -0.2130
  7.2783          -0.2670
  7.2800          -0.0900
  7.2817          -0.0540
  7.2833           0.1900
  7.2850           0.0620
  7.2867           0.0520
  7.2883          -0.0620
  7.2900          -0.1450
  7.2917          -0.1160
  7.2933          -0.3300
  7.2950          -0.3060
  7.2967          -0.4900
  7.2983          -0.7320
  7.3000          -0.9510
  7.3017          -1.1340
  7.3033          -0.9180
  7.3050          -0.8870
  7.3067          -0.5440
  7.3083          -0.6880
  7.3100          -0.6570
  7.3117          -0.7000
  7.3133          -0.7860
  7.3150          -0.6560
  7.3167          -0.7530
  7.3183          -0.6900
  7.3200          -0.9750
  7.3217          -1.1080
  7.3233          -1.1090
  7.3250          -1.0730
  7.3267          -0.7550
  7.3283          -0.6260
  7.3300          -0.6110
  7.3317          -0.7150
  7.3333          -0.8530
  7.3350          -0.8780
  7.3367          -1.0220
  7.3383          -0.7390
  7.3400          -0.8580
  7.3417          -1.0080
  7.3433          -1.0270
  7.3450          -1.2670
  7.3467          -0.8930
  7.3483          -0.8800
  7.3500          -0.7260
  7.3517          -0.6750
  7.3533          -0.6800
  7.3550          -0.6950
  7.3567          -0.8320
  7.3583          -0.6800
  7.3600          -0.8060
  7.3617          -0.6790
  7.3633          -0.7310
  7.3650          -0.8380
  7.3667          -1.0430
  7.3683          -1.0390
  7.3700          -0.7030
  7.3717          -0.6910
  7.3733          -0.3200
  7.3750          -0.2630
  7.3767          -0.6130
  7.3783          -0.7010
  7.3800          -0.9580
  7.3817          -0.8980
  7.3833          -0.9610
  7.3850          -0.7860
  7.3867          -0.7480
  7.3883          -0.9710
  7.3900          -0.6520
  7.3917          -0.7400
  7.3933          -0.3490
  7.3950          -0.1780
  7.3967          -0.1050
  7.3983          -0.1430
  7.4000          -0.1890
  7.4017          -0.3350
  7.4033          -0.6390
  7.4050          -0.6580
  7.4067          -0.8200
  7.4083          -0.4290
  7.4100          -0.3530
  7.4117          -0.3360
  7.4133          -0.2990
  7.4150          -0.4200
  7.4167          -0.3360
  7.4183          -0.3120
  7.4200          -0.1150
  7.4217          -0.2000
  7.4233          -0.3140
  7.4250          -0.4330
  7.4267          -0.6720
  7.4283          -0.4360
  7.4300          -0.3780
  7.4317          -0.0050
  7.4333           0.1530
  7.4350           0.2520
  7.4367           0.3780
  7.4383           0.0850
  7.4400           0.2690
  7.4417           0.2220
  7.4433           0.5540
  7.4450           0.6400
  7.4467           0.4850
  7.4483           0.4720
  7.4500           0.2420
  7.4517           0.4950
  7.4533           0.4550
  7.4550           0.9380
  7.4567           1.0830
  7.4583           1.1590
  7.4600           1.3230
  7.4617           1.1540
  7.4633           1.2710
  7.4650           1.3850
  7.4667           1.5760
  7.4683           1.7250
  7.4700           1.5270
  7.4717           1.7330
  7.4733           1.8410
  7.4750           2.1480
  7.4767           2.5260
  7.4783           2.5710
  7.4800           2.6380
  7.4817           2.3880
  7.4833           2.3080
  7.4850           2.1470
  7.4867           2.1530
  7.4883           2.1670
  7.4900           1.9680
  7.4917           1.9000
  7.4933           1.5140
  7.4950           1.3300
  7.4967           1.2840
  7.4983           1.1130
  7.5000           1.0420
  7.5017           1.1500
  7.5033           0.8940
  7.5050           0.6140
  7.5067           0.3570
  7.5083          -0.2980
  7.5100          -0.3920
  7.5117          -0.4080
  7.5133          -0.4280
  7.5150          -0.3240
  7.5167          -0.4940
  7.5183          -0.4930
  7.5200          -0.6800
  7.5217          -0.6680
  7.5233          -0.6110
  7.5250          -0.8520
  7.5267          -0.7320
  7.5283          -0.9290
  7.5300          -1.0450
  7.5317          -1.1970
  7.5333          -1.1910
  7.5350          -1.0110
  7.5367          -0.7540
  7.5383          -0.4390
  7.5400          -0.7140
  7.5417          -0.7010
  7.5433          -0.9630
  7.5450          -1.0360
  7.5467          -0.8810
  7.5483          -1.0010
  7.5500          -0.9070
  7.5517          -1.2630
  7.5533          -1.3180
  7.5550          -1.2470
  7.5567          -1.1810
  7.5583          -0.8260
  7.5600          -0.8820
  7.5617          -0.7600
  7.5633          -0.9990
  7.5650          -1.0260
  7.5667          -1.0810
  7.5683          -1.2170
  7.5700          -0.9310
  7.5717          -1.1070
  7.5733          -1.0950
  7.5750          -1.3270
  7.5767          -1.3320
  7.5783          -1.1980
  7.5800          -1.0330
  7.5817          -0.9190
  7.5833          -0.8580
  7.5850          -0.6720
  7.5867          -0.7600
  7.5883          -0.8420
  7.5900          -1.1870
  7.5917          -1.2710
  7.5933          -1.3070
  7.5950          -1.2080
  7.5967          -1.1070
  7.5983          -1.2210
  7.6000          -1.1380
  7.6017          -1.1540
  7.6033          -1.0940
  7.6050          -0.8310
  7.6067          -0.8290
  7.6083          -0.7790
  7.6100          -0.9810
  7.6117          -1.1560
  7.6133          -1.3400
  7.6150          -1.3960
  7.6167          -1.1240
  7.6183          -1.1110
  7.6200          -0.7730
  7.6217          -0.8640
  7.6233          -0.8860
  7.6250          -0.9410
  7.6267          -1.0240
  7.6283          -0.7750
  7.6300          -0.8150
  7.6317          -0.8420
  7.6333          -1.1110
  7.6350          -1.3370
  7.6367          -1.1890
  7.6383          -1.2150
  7.6400          -0.8300
  7.6417          -0.6280
  7.6433          -0.8910
  7.6450          -0.8360
  7.6467          -1.0200
  7.6483          -1.0560
  7.6500          -0.9740
  7.6517          -0.7380
  7.6533          -0.8400
  7.6550          -1.0230
  7.6567          -1.1480
  7.6583          -1.4020
  7.6600          -1.1360
  7.6617          -1.1480
  7.6633          -0.9250
  7.6650          -0.8630
  7.6667          -1.0610
  7.6683          -1.0530
  7.6700          -1.2450
  7.6717          -1.0440
  7.6733          -1.0670
  7.6750          -1.0260
  7.6767          -1.1150
  7.6783          -1.1700
  7.6800          -1.1960
  7.6817          -1.1210
  7.6833          -1.1820
  7.6850          -1.2730
  7.6867          -1.0890
  7.6883          -0.9690
  7.6900          -0.8100
  7.6917          -0.7980
  7.6933          -1.1680
  7.6950          -1.3740
  7.6967          -1.4580
  7.6983          -1.2210
  7.7000          -1.1670
  7.7017          -0.9750
  7.7033          -0.9540
  7.7050          -1.1490
  7.7067          -0.9570
  7.7083          -1.0480
  7.7100          -0.9220
  7.7117          -0.9180
  7.7133          -0.8090
  7.7150          -0.9780
  7.7167          -1.3190
  7.7183          -1.2870
  7.7200          -1.4680
  7.7217          -1.0880
  7.7233          -0.9220
  7.7250          -1.0990
  7.7267          -1.0950
  7.7283          -1.1610
  7.7300          -1.1400
  7.7317          -0.9340
  7.7333          -0.8400
  7.7350          -0.7720
  7.7367          -1.0750
  7.7383          -1.3010
  7.7400          -1.4710
  7.7417          -1.2350
  7.7433          -1.0190
  7.7450          -1.0210
  7.7467          -0.9360
  7.7483          -0.9970
  7.7500          -0.8510
  7.7517          -0.8320
  7.7533          -0.7160
  7.7550          -0.7970
  7.7567          -0.8250
  7.7583          -0.8130
  7.7600          -1.0560
  7.7617          -0.9970
  7.7633          -1.0850
  7.7650          -0.7970
  7.7667          -0.6520
  7.7683          -0.5270
  7.7700          -0.3620
  7.7717          -0.5280
  7.7733          -0.5570
  7.7750          -0.5840
  7.7767          -0.5950
  7.7783          -0.5740
  7.7800          -0.6510
  7.7817          -0.6670
  7.7833          -1.0220
  7.7850          -0.8910
  7.7867          -0.7940
  7.7883          -0.5690
  7.7900          -0.2780
  7.7917          -0.3530
  7.7933          -0.2960
  7.7950          -0.6520
  7.7967          -0.6310
  7.7983          -0.7040
  7.8000          -0.6360
  7.8017          -0.5570
  7.8033          -0.4710
  7.8050          -0.3990
  7.8067          -0.5870
  7.8083          -0.5880
  7.8100          -0.7670
  7.8117          -0.6360
  7.8133          -0.5320
  7.8150          -0.3200
  7.8167          -0.2860
  7.8183          -0.5360
  7.8200          -0.5410
  7.8217          -0.9560
  7.8233          -1.0340
  7.8250          -0.8950
  7.8267          -0.9420
  7.8283          -0.7440
  7.8300          -0.8450
  7.8317          -0.8520
  7.8333          -0.8800
  7.8350          -0.7990
  7.8367          -0.5810
  7.8383          -0.6190
  7.8400          -0.6370
  7.8417          -1.1080
  7.8433          -1.2310
  7.8450          -1.4280
  7.8467          -1.2910
  7.8483          -0.9290
  7.8500          -0.9450
  7.8517          -0.9160
  7.8533          -1.1670
  7.8550          -1.1680
  7.8567          -1.0880
  7.8583          -1.0140
  7.8600          -0.8940
  7.8617          -1.0280
  7.8633          -1.0360
  7.8650          -1.3820
  7.8667          -1.4540
  7.8683          -1.2600
  7.8700          -1.1670
  7.8717          -0.6350
  7.8733          -0.6770
  7.8750          -0.6650
  7.8767          -0.8000
  7.8783          -0.8460
  7.8800          -0.7040
  7.8817          -0.7120
  7.8833          -0.5170
  7.8850          -0.6330
  7.8867          -0.6300
  7.8883          -0.7410
  7.8900          -0.5020
  7.8917          -0.3820
  7.8933          -0.0650
  7.8950           0.0880
  7.8967           0.1800
  7.8983           0.4590
  7.9000           0.2350
  7.9017           0.3330
  7.9033           0.1220
  7.9050           0.0040
  7.9067           0.2130
  7.9083           0.2400
  7.9100           0.2150
  7.9117           0.2390
  7.9133           0.2840
  7.9150           0.1490
  7.9167           0.2830
  7.9183           0.2760
  7.9200           0.3610
  7.9217           0.5060
  7.9233           0.2540
  7.9250           0.1010
  7.9267          -0.0320
  7.9283          -0.1830
  7.9300           0.2550
  7.9317           0.2770
  7.9333           0.3570
  7.9350           0.2760
  7.9367           0.1780
  7.9383           0.2100
  7.9400           0.2020
  7.9417           0.2690
  7.9433           0.0160
  7.9450          -0.1510
  7.9467          -0.4460
  7.9483          -0.6750
  7.9500          -0.7080
  7.9517          -0.8830
  7.9533          -0.4900
  7.9550          -0.5550
  7.9567          -0.6810
  7.9583          -0.5460
  7.9600          -0.8480
  7.9617          -0.8510
  7.9633          -0.9650
  7.9650          -1.1000
  7.9667          -1.1920
  7.9683          -1.0640
  7.9700          -1.1140
  7.9717          -1.2790
  7.9733          -1.2690
  7.9750          -1.3990
  7.9767          -1.0820
  7.9783          -0.9810
  7.9800          -0.6190
  7.9817          -0.7320
  7.9833          -0.9620
  7.9850          -1.1700
  7.9867          -1.4680
  7.9883          -1.2920
  7.9900          -1.2400
  7.9917          -1.1090
  7.9933          -1.1660
  7.9950          -1.3100
  7.9967          -1.3020
  7.9983          -1.2220
  8.0000          -0.8300
  8.0017          -0.7210
  8.0033          -0.7340
  8.0050          -0.7780
  8.0067          -1.1680
  8.0083          -1.1400
  8.0100          -1.2070
  8.0117          -1.0710
  8.0133          -0.9840
  8.0150          -0.9260
  8.0167          -0.9020
  8.0183          -1.1070
  8.0200          -0.8810
  8.0217          -0.8840
  8.0233          -0.4830
  8.0250          -0.4080
  8.0267          -0.5390
  8.0283          -0.6730
  8.0300          -1.0060
  8.0317          -0.8690
  8.0333          -0.8560
  8.0350          -0.4550
  8.0367          -0.3920
  8.0383          -0.4130
  8.0400          -0.4130
  8.0417          -0.5620
  8.0433          -0.3780
  8.0450          -0.3050
  8.0467          -0.2820
  8.0483          -0.3590
  8.0500          -0.4040
  8.0517          -0.6100
  8.0533          -0.8270
  8.0550          -0.8160
  8.0567          -0.9030
  8.0583          -0.7500
  8.0600          -0.6290
  8.0617          -0.6280
  8.0633          -0.4550
  8.0650          -0.5940
  8.0667          -0.5300
  8.0683          -0.7730
  8.0700          -0.7080
  8.0717          -0.7990
  8.0733          -0.7040
  8.0750          -0.7480
  8.0767          -1.0260
  8.0783          -1.0810
  8.0800          -1.2590
  8.0817          -0.9680
  8.0833          -0.8700
  8.0850          -0.6190
  8.0867          -0.6710
  8.0883          -1.0140
  8.0900          -1.1050
  8.0917          -1.2350
  8.0933          -1.1850
  8.0950          -1.0560
  8.0967          -0.9780
  8.0983          -0.9850
  8.1000          -1.2930
  8.1017          -1.1930
  8.1033          -1.1200
  8.1050          -0.8790
  8.1067          -0.5580
  8.1083          -0.7010
  8.1100          -0.7760
  8.1117          -1.1260
  8.1133          -1.1340
  8.1150          -1.1610
  8.1167          -1.1160
  8.1183          -0.9540
  8.1200          -1.2160
  8.1217          -1.1730
  8.1233          -1.2460
  8.1250          -1.1560
  8.1267          -0.8280
  8.1283          -0.8460
  8.1300          -0.7860
  8.1317          -0.9940
  8.1333          -1.0450
  8.1350          -1.3390
  8.1367          -1.4830
  8.1383          -1.4620
  8.1400          -1.4260
  8.1417          -1.0680
  8.1433          -0.9180
  8.1450          -0.6880
  8.1467          -0.8590
  8.1483          -0.8140
  8.1500          -1.0250
  8.1517          -1.1060
  8.1533          -0.9380
  8.1550          -1.0960
  8.1567          -0.9880
  8.1583          -1.2440
  8.1600          -1.2390
  8.1617          -1.4150
  8.1633          -1.2450
  8.1650          -1.0040
  8.1667          -0.9190
  8.1683          -0.5280
  8.1700          -0.8690
  8.1717          -0.8990
  8.1733          -0.8940
  8.1750          -1.0510
  8.1767          -0.8050
  8.1783          -0.9050
  8.1800          -1.0440
  8.1817          -1.2400
  8.1833          -1.2830
  8.1850          -1.0420
  8.1867          -0.8550
  8.1883          -0.4730
  8.1900          -0.5650
  8.1917          -0.6130
  8.1933          -0.8580
  8.1950          -1.0140
  8.1967          -0.9340
  8.1983          -0.9530
  8.2000          -0.8170
  8.2017          -1.0500
  8.2033          -1.1220
  8.2050          -1.2300
  8.2067          -1.2220
  8.2083          -0.8720
  8.2100          -0.7520
  8.2117          -0.6570
  8.2133          -0.5760
  8.2150          -0.6280
  8.2167          -0.8970
  8.2183          -0.9710
  8.2200          -1.2610
  8.2217          -1.3560
  8.2233          -1.2020
  8.2250          -1.1410
  8.2267          -0.9680
  8.2283          -0.9840
  8.2300          -0.9330
  8.2317          -0.9430
  8.2333          -0.8880
  8.2350          -0.5160
  8.2367          -0.7000
  8.2383          -0.7170
  8.2400          -0.9500
  8.2417          -1.3990
  8.2433          -1.4000
  8.2450          -1.4370
  8.2467          -1.0190
  8.2483          -0.9290
  8.2500          -0.7890
  8.2517          -0.7730
  8.2533          -0.8620
  8.2550          -0.7370
  8.2567          -0.7700
  8.2583          -0.8020
  8.2600          -0.9570
  8.2617          -1.1980
  8.2633          -1.3650
  8.2650          -1.4170
  8.2667          -1.1310
  8.2683          -0.9610
  8.2700          -0.5910
  8.2717          -0.5640
  8.2733          -0.7910
  8.2750          -0.7970
  8.2767          -0.9390
  8.2783          -0.8010
  8.2800          -0.8030
  8.2817          -0.6960
  8.2833          -0.8330
  8.2850          -0.8590
  8.2867          -0.7280
  8.2883          -0.6880
  8.2900          -0.2060
  8.2917          -0.0890
  8.2933          -0.0610
  8.2950           0.0900
  8.2967          -0.1840
  8.2983          -0.0590
  8.3000          -0.0630
  8.3017          -0.0660
  8.3033          -0.1250
  8.3050           0.0370
  8.3067          -0.0860
  8.3083          -0.1130
  8.3100          -0.1440
  8.3117          -0.4000
  8.3133          -0.4040
  8.3150          -0.3430
  8.3167          -0.1950
  8.3183          -0.2420
  8.3200          -0.3730
  8.3217          -0.5010
  8.3233          -0.8070
  8.3250          -0.7460
  8.3267          -0.7550
  8.3283          -0.4330
  8.3300          -0.3630
  8.3317          -0.4050
  8.3333          -0.4440
  8.3350          -0.7720
  8.3367          -0.4580
  8.3383          -0.4640
  8.3400          -0.2700
  8.3417          -0.3800
  8.3433          -0.6800
  8.3450          -0.8420
  8.3467          -1.0760
  8.3483          -0.9780
  8.3500          -0.9100
  8.3517          -0.5170
  8.3533          -0.4690
  8.3550          -0.6790
  8.3567          -0.7540
  8.3583          -0.9520
  8.3600          -0.6780
  8.3617          -0.3900
  8.3633          -0.3840
  8.3650          -0.2960
  8.3667          -0.5760
  8.3683          -0.6910
  8.3700          -0.6760
  8.3717          -0.5630
  8.3733          -0.3770
  8.3750          -0.4120
  8.3767          -0.2510
  8.3783          -0.4270
  8.3800          -0.2840
  8.3817          -0.1530
  8.3833           0.1290
  8.3850           0.1930
  8.3867           0.3820
  8.3883           0.5350
  8.3900           0.4230
  8.3917           0.6330
  8.3933           0.3970
  8.3950           0.5890
  8.3967           0.9110
  8.3983           1.3500
  8.4000           1.7310
  8.4017           1.8230
  8.4033           2.0540
  8.4050           1.9760
  8.4067           2.2020
  8.4083           2.6930
  8.4100           2.9280
  8.4117           3.3800
  8.4133           3.5340
  8.4150           3.8530
  8.4167           3.9600
  8.4183           4.4520
  8.4200           5.0350
  8.4217           5.4390
  8.4233           6.3210
  8.4250           6.4920
  8.4267           7.0250
  8.4283           7.3360
  8.4300           7.6060
  8.4317           8.0130
  8.4333           7.9840
  8.4350           8.1350
  8.4367           7.9670
  8.4383           8.3600
  8.4400           8.8370
  8.4417           9.3040
  8.4433          10.0740
  8.4450          10.3990
  8.4467          10.8760
  8.4483          10.9750
  8.4500          10.9540
  8.4517          10.8180
  8.4533          10.3930
  8.4550           9.7260
  8.4567           8.1870
  8.4583           6.6550
  8.4600           4.8790
  8.4617           3.5820
  8.4633           2.7320
  8.4650           1.9270
  8.4667           1.4930
  8.4683           1.0370
  8.4700           0.6990
  8.4717           0.3520
  8.4733           0.2570
  8.4750           0.3520
  8.4767           0.4880
  8.4783           0.7920
  8.4800           0.7930
  8.4817           0.8770
  8.4833           0.9560
  8.4850           1.0030
  8.4867           1.0120
  8.4883           1.0740
  8.4900           1.3490
  8.4917           1.1770
  8.4933           1.1990
  8.4950           0.7720
  8.4967           0.4750
  8.4983           0.3930
  8.5000           0.2390
  8.5017           0.5670
  8.5033           0.4530
  8.5050           0.4370
  8.5067           0.0630
  8.5083          -0.2970
  8.5100          -0.4790
  8.5117          -0.7530
  8.5133          -0.6080
  8.5150          -0.7210
  8.5167          -0.9190
  8.5183          -1.0710
  8.5200          -1.3270
  8.5217          -1.1870
  8.5233          -1.0620
  8.5250          -0.6690
  8.5267          -0.6100
  8.5283          -0.8010
  8.5300          -0.9620
  8.5317          -1.2340
  8.5333          -1.1370
  8.5350          -1.2090
  8.5367          -1.1190
  8.5383          -1.1200
  8.5400          -1.3910
  8.5417          -1.3520
  8.5433          -1.3980
  8.5450          -0.9180
  8.5467          -0.8450
  8.5483          -0.5940
  8.5500          -0.6700
  8.5517          -1.0770
  8.5533          -1.1100
  8.5550          -1.4400
  8.5567          -1.2570
  8.5583          -1.2510
  8.5600          -1.1790
  8.5617          -1.1810
  8.5633          -1.1840
  8.5650          -1.0610
  8.5667          -1.1560
  8.5683          -0.8570
  8.5700          -0.8230
  8.5717          -0.9630
  8.5733          -0.9890
  8.5750          -1.2050
  8.5767          -1.1230
  8.5783          -1.2320
  8.5800          -1.0800
  8.5817          -1.0840
  8.5833          -1.2450
  8.5850          -1.0300
  8.5867          -1.3190
  8.5883          -1.1410
  8.5900          -1.1000
  8.5917          -0.7970
  8.5933          -0.8650
  8.5950          -1.0020
  8.5967          -1.1560
  8.5983          -1.4380
  8.6000          -1.4400
  8.6017          -1.5900
  8.6033          -1.3440
  8.6050          -1.2450
  8.6067          -1.0040
  8.6083          -0.9000
  8.6100          -1.0580
  8.6117          -0.9970
  8.6133          -1.1650
  8.6150          -0.9780
  8.6167          -0.9300
  8.6183          -0.7300
  8.6200          -0.6950
  8.6217          -1.0010
  8.6233          -1.0340
  8.6250          -1.0470
  8.6267          -0.8730
  8.6283          -0.5100
  8.6300          -0.4250
  8.6317          -0.3140
  8.6333          -0.3530
  8.6350          -0.2970
  8.6367          -0.3160
  8.6383          -0.1460
  8.6400          -0.1250
  8.6417          -0.2040
  8.6433          -0.2720
  8.6450          -0.4460
  8.6467          -0.4720
  8.6483          -0.4520
  8.6500          -0.2180
  8.6517          -0.0800
  8.6533          -0.1830
  8.6550          -0.2230
  8.6567          -0.6730
  8.6583          -0.7580
  8.6600          -0.7380
  8.6617          -0.7400
  8.6633          -0.7370
  8.6650          -1.0190
  8.6667          -1.0380
  8.6683          -1.3070
  8.6700          -1.1650
  8.6717          -0.8900
  8.6733          -0.7190
  8.6750          -0.4840
  8.6767          -0.6390
  8.6783          -0.7050
  8.6800          -1.0360
  8.6817          -1.0190
  8.6833          -0.9250
  8.6850          -1.0050
  8.6867          -0.8320
  8.6883          -0.8280
  8.6900          -0.7590
  8.6917          -0.7750
  8.6933          -0.7180
  8.6950          -0.7730
  8.6967          -0.7240
  8.6983          -0.6530
  8.7000          -0.6880
  8.7017          -0.7210
  8.7033          -1.0350
  8.7050          -1.1130
  8.7067          -1.1970
  8.7083          -1.0600
  8.7100          -0.7980
  8.7117          -0.9200
  8.7133          -0.9340
  8.7150          -1.2630
  8.7167          -1.3110
  8.7183          -1.1530
  8.7200          -1.0430
  8.7217          -0.7390
  8.7233          -0.8800
  8.7250          -0.8580
  8.7267          -1.2620
  8.7283          -1.2280
  8.7300          -1.0260
  8.7317          -1.0150
  8.7333          -0.6590
  8.7350          -0.8030
  8.7367          -0.6960
  8.7383          -0.9390
  8.7400          -1.0210
  8.7417          -0.9850
  8.7433          -1.0290
  8.7450          -0.9110
  8.7467          -1.1010
  8.7483          -1.1600
  8.7500          -1.3130
  8.7517          -1.2530
  8.7533          -0.9380
  8.7550          -0.9190
  8.7567          -0.6910
  8.7583          -0.8780
  8.7600          -0.9300
  8.7617          -1.1440
  8.7633          -1.1850
  8.7650          -1.0380
  8.7667          -1.1170
  8.7683          -1.0020
  8.7700          -1.2080
  8.7717          -1.2710
  8.7733          -1.2650
  8.7750          -1.3200
  8.7767          -1.0810
  8.7783          -1.1160
  8.7800          -0.9510
  8.7817          -0.9340
  8.7833          -1.0890
  8.7850          -1.1020
  8.7867          -1.2880
  8.7883          -1.1010
  8.7900          -1.0560
  8.7917          -1.1810
  8.7933          -1.1950
  8.7950          -1.3600
  8.7967          -1.2930
  8.7983          -1.2080
  8.8000          -1.0090
  8.8017          -0.9480
  8.8033          -0.7380
  8.8050          -0.8750
  8.8067          -1.0370
  8.8083          -1.1640
  8.8100          -1.3120
  8.8117          -1.1490
  8.8133          -1.1840
  8.8150          -1.0770
  8.8167          -1.1230
  8.8183          -1.0680
  8.8200          -1.1140
  8.8217          -1.0790
  8.8233          -0.9260
  8.8250          -0.9800
  8.8267          -0.7990
  8.8283          -0.8270
  8.8300          -1.0240
  8.8317          -1.2450
  8.8333          -1.3690
  8.8350          -1.0710
  8.8367          -0.9530
  8.8383          -0.7050
  8.8400          -0.7740
  8.8417          -1.1170
  8.8433          -1.1530
  8.8450          -1.1550
  8.8467          -0.9170
  8.8483          -0.9160
  8.8500          -0.6870
  8.8517          -0.8070
  8.8533          -1.1500
  8.8550          -1.1140
  8.8567          -1.4330
  8.8583          -1.1110
  8.8600          -0.9710
  8.8617          -0.9330
  8.8633          -0.9600
  8.8650          -1.1390
  8.8667          -1.1060
  8.8683          -1.1770
  8.8700          -0.9190
  8.8717          -0.9650
  8.8733          -1.0420
  8.8750          -1.0180
  8.8767          -1.2480
  8.8783          -1.1450
  8.8800          -1.1680
  8.8817          -0.9740
  8.8833          -0.9370
  8.8850          -1.1150
  8.8867          -1.0420
  8.8883          -1.3830
  8.8900          -1.1580
  8.8917          -1.1780
  8.8933          -1.0400
  8.8950          -1.0510
  8.8967          -1.2300
  8.8983          -1.2530
  8.9000          -1.4800
  8.9017          -1.2330
  8.9033          -1.0940
  8.9050          -0.6730
  8.9067          -0.5680
  8.9083          -0.7610
  8.9100          -0.8600
  8.9117          -1.1190
  8.9133          -0.9720
  8.9150          -0.9720
  8.9167          -0.8290
  8.9183          -0.8280
  8.9200          -1.1580
  8.9217          -1.0580
  8.9233          -1.1660
  8.9250          -0.8240
  8.9267          -0.5040
  8.9283          -0.3690
  8.9300          -0.2700
  8.9317          -0.2970
  8.9333          -0.3640
  8.9350          -0.4540
  8.9367          -0.6230
  8.9383          -0.8320
  8.9400          -0.8030
  8.9417          -0.7640
  8.9433          -0.6040
  8.9450          -0.5500
  8.9467          -0.7420
  8.9483          -0.6720
  8.9500          -0.8520
  8.9517          -0.6610
  8.9533          -0.6580
  8.9550          -0.7830
  8.9567          -0.7190
  8.9583          -1.1370
  8.9600          -1.1040
  8.9617          -1.1100
  8.9633          -1.0480
  8.9650          -0.9780
  8.9667          -0.9770
  8.9683          -0.9250
  8.9700          -1.0580
  8.9717          -1.0160
  8.9733          -1.0720
  8.9750          -1.0730
  8.9767          -0.9800
  8.9783          -1.0840
  8.9800          -1.0630
  8.9817          -1.3690
  8.9833          -1.3460
  8.9850          -1.2920
  8.9867          -1.2270
  8.9883          -0.9770
  8.9900          -1.0020
  8.9917          -0.9790
  8.9933          -1.2560
  8.9950          -1.3240
  8.9967          -1.4120
  8.9983          -1.2600
  9.0000          -1.1100
  9.0017          -1.2240
  9.0033          -1.2430
  9.0050          -1.3960
  9.0067          -1.3540
  9.0083          -1.0690
  9.0100          -0.9080
  9.0117          -0.8020
  9.0133          -1.0800
  9.0150          -1.1450
  9.0167          -1.3650
  9.0183          -1.3090
  9.0200          -1.0650
  9.0217          -1.1560
  9.0233          -1.0860
  9.0250          -1.3220
  9.0267          -1.1980
  9.0283          -1.2760
  9.0300          -1.1760
  9.0317          -1.0000
  9.0333          -1.0680
  9.0350          -0.9030
  9.0367          -1.1980
  9.0383          -1.2660
  9.0400          -1.3160
  9.0417          -1.2810
  9.0433          -1.0560
  9.0450          -1.1550
  9.0467          -1.1500
  9.0483          -1.4840
  9.0500          -1.4430
  9.0517          -1.3420
  9.0533          -1.2110
  9.0550          -0.9120
  9.0567          -0.9900
  9.0583          -0.9960
  9.0600          -1.2030
  9.0617          -1.2110
  9.0633          -1.1350
  9.0650          -1.1360
  9.0667          -0.9430
  9.0683          -1.0720
  9.0700          -1.0950
  9.0717          -1.2300
  9.0733          -1.2380
  9.0750          -1.0830
  9.0767          -1.0560
  9.0783          -0.8770
  9.0800          -0.9710
  9.0817          -0.8760
  9.0833          -1.1010
  9.0850          -1.1300
  9.0867          -1.4650
  9.0883          -1.6220
  9.0900          -1.4160
  9.0917          -1.3830
  9.0933          -1.1000
  9.0950          -1.2410
  9.0967          -1.2850
  9.0983          -1.4270
  9.1000          -1.4320
  9.1017          -1.0450
  9.1033          -1.0450
  9.1050          -0.8500
  9.1067          -1.0330
  9.1083          -1.2640
  9.1100          -1.4250
  9.1117          -1.4350
  9.1133          -1.0460
  9.1150          -1.0220
  9.1167          -0.8300
  9.1183          -0.9910
  9.1200          -1.1710
  9.1217          -1.1920
  9.1233          -1.3530
  9.1250          -1.1290
  9.1267          -1.1700
  9.1283          -1.0550
  9.1300          -1.1720
  9.1317          -1.2580
  9.1333          -1.2760
  9.1350          -1.2230
  9.1367          -0.8970
  9.1383          -0.8060
  9.1400          -0.8890
  9.1417          -1.0600
  9.1433          -1.2420
  9.1450          -1.1630
  9.1467          -1.1220
  9.1483          -0.9660
  9.1500          -1.0210
  9.1517          -1.1740
  9.1533          -1.1260
  9.1550          -1.3240
  9.1567          -1.0710
  9.1583          -0.9770
  9.1600          -0.7300
  9.1617          -0.7510
  9.1633          -0.9860
  9.1650          -1.1870
  9.1667          -1.4550
  9.1683          -1.3710
  9.1700          -1.5210
  9.1717          -1.2650
  9.1733          -1.1990
  9.1750          -0.8500
  9.1767          -0.7600
  9.1783          -0.8580
  9.1800          -0.9370
  9.1817          -1.1790
  9.1833          -1.0100
  9.1850          -0.9710
  9.1867          -0.7490
  9.1883          -0.7970
  9.1900          -0.9790
  9.1917          -1.1190
  9.1933          -1.3290
  9.1950          -1.1400
  9.1967          -1.0440
  9.1983          -0.7730
  9.2000          -0.6970
  9.2017          -0.9300
  9.2033          -0.9610
  9.2050          -1.1390
  9.2067          -0.9750
  9.2083          -0.9910
  9.2100          -1.0090
  9.2117          -1.1100
  9.2133          -1.4390
  9.2150          -1.3160
  9.2167          -1.4230
  9.2183          -1.0100
  9.2200          -0.8450
  9.2217          -0.8570
  9.2233          -0.9230
  9.2250          -1.0750
  9.2267          -1.1310
  9.2283          -1.1420
  9.2300          -0.8670
  9.2317          -0.9510
  9.2333          -1.0250
  9.2350          -1.1350
  9.2367          -1.3520
  9.2383          -1.1910
  9.2400          -1.0810
  9.2417          -0.8450
  9.2433          -0.7330
  9.2450          -0.6410
  9.2467          -0.6770
  9.2483          -0.9260
  9.2500          -1.0130
  9.2517          -1.3290
  9.2533          -1.2350
  9.2550          -1.1980
  9.2567          -0.9940
  9.2583          -0.9090
  9.2600          -1.0460
  9.2617          -0.9710
  9.2633          -1.2380
  9.2650          -0.9610
  9.2667          -0.8340
  9.2683          -0.7360
  9.2700          -0.7330
  9.2717          -1.1290
  9.2733          -1.2210
  9.2750          -1.4230
  9.2767          -1.1680
  9.2783          -0.9900
  9.2800          -0.7030
  9.2817          -0.6710
  9.2833          -1.0460
  9.2850          -0.9840
  9.2867          -1.1720
  9.2883          -0.9880
  9.2900          -0.8710
  9.2917          -1.0210
  9.2933          -0.9990
  9.2950          -1.3020
  9.2967          -1.3340
  9.2983          -1.2640
  9.3000          -1.0700
  9.3017          -0.7900
  9.3033          -0.7370
  9.3050          -0.5590
  9.3067          -0.7160
  9.3083          -0.7290
  9.3100          -1.0850
  9.3117          -1.1150
  9.3133          -1.2080
  9.3150          -1.0850
  9.3167          -1.0110
  9.3183          -1.1270
  9.3200          -1.1740
  9.3217          -1.3140
  9.3233          -1.2390
  9.3250          -1.1060
  9.3267          -0.8530
  9.3283          -0.7020
  9.3300          -0.7750
  9.3317          -0.8520
  9.3333          -1.1580
  9.3350          -1.2530
  9.3367          -1.1150
  9.3383          -1.0710
  9.3400          -1.0320
  9.3417          -1.1280
  9.3433          -1.0700
  9.3450          -1.1500
  9.3467          -0.9760
  9.3483          -0.6440
  9.3500          -0.6990
  9.3517          -0.6280
  9.3533          -0.9150
  9.3550          -1.0110
  9.3567          -1.2370
  9.3583          -1.1540
  9.3600          -1.0360
  9.3617          -1.0910
  9.3633          -0.8350
  9.3650          -1.1840
  9.3667          -1.1760
  9.3683          -1.0520
  9.3700          -1.0360
  9.3717          -0.8320
  9.3733          -0.8580
  9.3750          -0.9520
  9.3767          -1.0020
  9.3783          -0.9290
  9.3800          -1.2590
  9.3817          -1.2390
  9.3833          -1.2160
  9.3850          -1.2710
  9.3867          -0.7530
  9.3883          -0.8260
  9.3900          -0.8210
  9.3917          -1.0590
  9.3933          -1.2450
  9.3950          -1.1900
  9.3967          -1.2010
  9.3983          -0.9890
  9.4000          -1.2510
  9.4017          -1.2030
  9.4033          -1.3930
  9.4050          -1.3460
  9.4067          -1.2280
  9.4083          -1.1430
  9.4100          -0.9100
  9.4117          -0.9720
  9.4133          -0.9020
  9.4150          -1.0780
  9.4167          -1.1890
  9.4183          -0.9950
  9.4200          -1.0090
  9.4217          -0.8220
  9.4233          -1.0170
  9.4250          -1.1360
  9.4267          -1.2190
  9.4283          -1.2160
  9.4300          -0.7950
  9.4317          -0.6970
  9.4333          -0.4870
  9.4350          -0.6020
  9.4367          -0.8440
  9.4383          -0.9260
  9.4400          -1.0580
  9.4417          -0.9180
  9.4433          -0.8420
  9.4450          -0.5490
  9.4467          -0.4200
  9.4483          -0.3940
  9.4500          -0.6520
  9.4517          -0.8960
  9.4533          -0.9020
  9.4550          -0.8810
  9.4567          -0.5750
  9.4583          -0.6090
  9.4600          -0.7160
  9.4617          -0.8720
  9.4633          -1.0930
  9.4650          -1.1020
  9.4667          -1.1010
  9.4683          -0.9160
  9.4700          -0.9210
  9.4717          -1.0000
  9.4733          -1.1320
  9.4750          -1.2820
  9.4767          -1.1160
  9.4783          -1.1330
  9.4800          -0.8210
  9.4817          -0.8600
  9.4833          -1.0470
  9.4850          -1.1270
  9.4867          -1.3330
  9.4883          -1.1610
  9.4900          -1.1220
  9.4917          -0.9410
  9.4933          -0.9960
  9.4950          -1.0860
  9.4967          -0.9970
  9.4983          -1.0690
  9.5000          -0.7180
  9.5017          -0.8930
  9.5033          -0.7490
  9.5050          -0.8490
  9.5067          -0.9440
  9.5083          -0.9790
  9.5100          -1.1320
  9.5117          -1.0980
  9.5133          -1.2350
  9.5150          -0.9480
  9.5167          -0.8760
  9.5183          -0.7760
  9.5200          -0.7780
  9.5217          -1.1460
  9.5233          -1.0790
  9.5250          -1.1750
  9.5267          -0.8530
  9.5283          -0.8060
  9.5300          -0.9540
  9.5317          -1.0960
  9.5333          -1.4350
  9.5350          -1.2160
  9.5367          -1.1730
  9.5383          -0.7910
  9.5400          -0.7510
  9.5417          -0.8760
  9.5433          -0.9870
  9.5450          -1.2090
  9.5467          -1.0720
  9.5483          -1.1360
  9.5500          -0.9470
  9.5517          -0.9780
  9.5533          -1.1850
  9.5550          -1.1820
  9.5567          -1.1880
  9.5583          -0.9970
  9.5600          -0.9440
  9.5617          -0.7370
  9.5633          -0.8240
  9.5650          -1.0930
  9.5667          -1.0870
  9.5683          -1.5030
  9.5700          -1.4980
  9.5717          -1.4320
  9.5733          -1.2390
  9.5750          -1.1900
  9.5767          -1.0610
  9.5783          -0.9550
  9.5800          -1.3640
  9.5817          -1.1540
  9.5833          -1.2960
  9.5850          -1.1620
  9.5867          -0.9450
  9.5883          -0.9370
  9.5900          -0.9680
  9.5917          -1.3870
  9.5933          -1.3180
  9.5950          -1.3290
  9.5967          -1.2770
  9.5983          -1.0960
  9.6000          -1.0570
  9.6017          -1.0340
  9.6033          -1.1480
  9.6050          -1.1080
  9.6067          -1.1310
  9.6083          -1.1220
  9.6100          -0.9780
  9.6117          -1.1510
  9.6133          -1.1660
  9.6150          -1.3440
  9.6167          -1.4200
  9.6183          -1.3090
  9.6200          -1.0390
  9.6217          -0.8030
  9.6233          -1.0020
  9.6250          -0.9840
  9.6267          -1.3090
  9.6283          -1.3430
  9.6300          -1.0620
  9.6317          -1.0220
  9.6333          -0.9270
  9.6350          -1.0960
  9.6367          -1.0490
  9.6383          -1.2640
  9.6400          -1.2450
  9.6417          -1.1830
  9.6433          -1.2050
  9.6450          -0.9950
  9.6467          -0.9350
  9.6483          -0.9180
  9.6500          -1.2380
  9.6517          -1.3370
  9.6533          -1.4330
  9.6550          -1.3580
  9.6567          -1.0340
  9.6583          -1.1330
  9.6600          -1.0210
  9.6617          -1.2710
  9.6633          -1.2220
  9.6650          -1.0640
  9.6667          -1.1610
  9.6683          -0.8650
  9.6700          -0.9640
  9.6717          -1.0680
  9.6733          -1.3630
  9.6750          -1.3890
  9.6767          -1.3510
  9.6783          -1.2120
  9.6800          -0.9310
  9.6817          -1.1150
  9.6833          -1.0540
  9.6850          -1.2460
  9.6867          -1.2880
  9.6883          -1.1230
  9.6900          -1.1770
  9.6917          -0.9850
  9.6933          -1.0760
  9.6950          -1.2470
  9.6967          -1.3570
  9.6983          -1.4520
  9.7000          -1.1500
  9.7017          -1.1250
  9.7033          -1.0210
  9.7050          -1.0350
  9.7067          -0.9650
  9.7083          -1.0530
  9.7100          -1.1110
  9.7117          -1.3370
  9.7133          -1.4220
  9.7150          -1.0570
  9.7167          -1.0410
  9.7183          -0.8920
  9.7200          -1.1730
  9.7217          -1.4330
  9.7233          -1.5470
  9.7250          -1.4970
  9.7267          -0.9520
  9.7283          -0.8780
  9.7300          -0.7920
  9.7317          -0.9410
  9.7333          -1.2120
  9.7350          -1.2360
  9.7367          -1.2850
  9.7383          -1.1330
  9.7400          -1.2390
  9.7417          -1.3390
  9.7433          -1.3320
  9.7450          -1.5400
  9.7467          -1.1800
  9.7483          -1.0410
  9.7500          -0.8640
  9.7517          -0.8960
  9.7533          -1.1920
  9.7550          -1.2290
  9.7567          -1.3660
  9.7583          -1.1440
  9.7600          -1.2620
  9.7617          -1.0620
  9.7633          -1.0220
  9.7650          -1.0640
  9.7667          -0.8820
  9.7683          -1.0190
  9.7700          -0.7690
  9.7717          -0.7050
  9.7733          -0.7520
  9.7750          -0.8170
  9.7767          -1.0510
  9.7783          -0.8860
  9.7800          -0.9950
  9.7817          -0.7450
  9.7833          -0.7430
  9.7850          -0.6480
  9.7867          -0.5730
  9.7883          -0.6410
  9.7900          -0.7100
  9.7917          -0.9180
  9.7933          -0.7160
  9.7950          -0.8190
  9.7967          -0.5350
  9.7983          -0.5600
  9.8000          -0.6760
  9.8017          -0.7300
  9.8033          -1.1080
  9.8050          -1.0020
  9.8067          -1.0180
  9.8083          -0.8270
  9.8100          -0.7160
  9.8117          -0.8340
  9.8133          -0.9380
  9.8150          -1.0180
  9.8167          -1.0730
  9.8183          -1.0040
  9.8200          -0.9150
  9.8217          -0.8930
  9.8233          -1.1920
  9.8250          -1.2410
  9.8267          -1.4080
  9.8283          -1.2510
  9.8300          -0.9480
  9.8317          -0.9990
  9.8333          -0.9020
  9.8350          -1.1250
  9.8367          -1.1160
  9.8383          -1.0990
  9.8400          -0.8890
  9.8417          -0.8620
  9.8433          -1.1210
  9.8450          -1.0880
  9.8467          -1.4210
  9.8483          -1.3440
  9.8500          -1.1500
  9.8517          -1.1940
  9.8533          -1.0110
  9.8550          -1.0700
  9.8567          -1.0170
  9.8583          -1.1640
  9.8600          -1.2330
  9.8617          -1.1480
  9.8633          -1.1830
  9.8650          -1.0150
  9.8667          -1.0230
  9.8683          -0.9980
  9.8700          -1.2670
  9.8717          -1.3410
  9.8733          -1.4470
  9.8750          -1.4010
  9.8767          -1.0610
  9.8783          -1.0040
  9.8800          -0.8790
  9.8817          -1.1980
  9.8833          -1.2820
  9.8850          -1.4980
  9.8867          -1.4840
  9.8883          -1.1830
  9.8900          -1.1450
  9.8917          -1.0030
  9.8933          -1.2960
  9.8950          -1.2890
  9.8967          -1.2140
  9.8983          -1.0690
  9.9000          -0.7120
  9.9017          -0.8480
  9.9033          -0.9000
  9.9050          -1.4130
  9.9067          -1.5200
  9.9083          -1.4070
  9.9100          -1.3880
  9.9117          -0.8740
  9.9133          -1.1420
  9.9150          -1.2230
  9.9167          -1.3870
  9.9183          -1.3250
  9.9200          -0.9000
  9.9217          -0.9000
  9.9233          -0.8320
  9.9250          -1.1240
  9.9267          -1.2230
  9.9283          -1.4080
  9.9300          -1.4760
  9.9317          -1.2700
  9.9333          -1.2480
  9.9350          -1.1490
  9.9367          -1.1580
  9.9383          -1.0890
  9.9400          -1.0270
  9.9417          -0.9770
  9.9433          -0.8410
  9.9450          -0.9690
  9.9467          -0.8850
  9.9483          -0.9440
  9.9500          -1.0580
  9.9517          -1.1180
  9.9533          -1.2530
  9.9550          -1.2470
  9.9567          -1.2040
  9.9583          -0.9530
  9.9600          -1.0440
  9.9617          -1.0380
  9.9633          -1.1770
  9.9650          -1.3430
  9.9667          -1.1350
  9.9683          -1.1770
  9.9700          -0.9280
  9.9717          -0.9840
  9.9733          -1.2270
  9.9750          -1.3180
  9.9767          -1.4880
  9.9783          -1.1190
  9.9800          -1.0910
  9.9817          -0.9390
  9.9833          -0.9050
  9.9850          -1.1900
  9.9867          -1.0660
  9.9883          -1.2080
  9.9900          -1.1140
  9.9917          -1.1030
  9.9933          -1.1800
  9.9950          -1.1930
  9.9967          -1.4620
  9.9983          -1.2590
 10.0000          -1.3440
 10.0017          -1.1040
 10.0033          -1.0400
 10.0050          -1.1730
 10.0067          -1.1310
 10.0083          -1.4240
 10.0100          -1.3630
 10.0117          -1.4120
 10.0133          -1.2330
 10.0150          -1.1850
 10.0167          -1.3570
 10.0183          -1.3810
 10.0200          -1.4180
 10.0217          -1.2440
 10.0233          -0.9430
 10.0250          -0.7970
 10.0267          -0.6930
 10.0283          -0.6880
 10.0300          -0.8350
 10.0317          -1.2070
 10.0333          -1.3150
 10.0350          -1.4860
 10.0367          -1.2940
 10.0383          -1.0520
 10.0400          -0.9420
 10.0417          -0.9570
 10.0433          -1.1150
 10.0450          -1.0140
 10.0467          -1.0270
 10.0483          -0.7150
 10.0500          -0.5760
 10.0517          -0.5180
 10.0533          -0.5270
 10.0550          -0.9250
 10.0567          -0.8080
 10.0583          -0.5600
 10.0600          -0.3060
 10.0617           0.0770
 10.0633          -0.0890
 10.0650          -0.0650
 10.0667          -0.1520
 10.0683          -0.0660
 10.0700           0.1630
 10.0717           0.2920
 10.0733           0.4810
 10.0750           0.2190
 10.0767           0.2260
 10.0783           0.1270
 10.0800           0.1920
 10.0817           0.4590
 10.0833           0.3270
 10.0850           0.4250
 10.0867           0.2670
 10.0883           0.2380
 10.0900          -0.0080
 10.0917          -0.1600
 10.0933          -0.3430
 10.0950          -0.4690
 10.0967          -0.2270
 10.0983          -0.4680
 10.1000          -0.4730
 10.1017          -0.8710
 10.1033          -1.0760
 10.1050          -1.0590
 10.1067          -1.0520
 10.1083          -0.7580
 10.1100          -0.9010
 10.1117          -0.8840
 10.1133          -1.0950
 10.1150          -1.1570
 10.1167          -1.0110
 10.1183          -1.1130
 10.1200          -0.9640
 10.1217          -1.1160
 10.1233          -1.2270
 10.1250          -1.2700
 10.1267          -1.2640
 10.1283          -0.9420
 10.1300          -0.9220
 10.1317          -0.8430
 10.1333          -1.0030
 10.1350          -1.0870
 10.1367          -1.0730
 10.1383          -1.2170
 10.1400          -1.1570
 10.1417          -1.1700
 10.1433          -1.2450
 10.1450          -1.2920
 10.1467          -1.4990
 10.1483          -1.3480
 10.1500          -1.3170
 10.1517          -1.0190
 10.1533          -0.9860
 10.1550          -1.2250
 10.1567          -1.2730
 10.1583          -1.4230
 10.1600          -1.4080
 10.1617          -1.5080
 10.1633          -1.3250
 10.1650          -1.3740
 10.1667          -1.1540
 10.1683          -1.2180
 10.1700          -1.1010
 10.1717          -1.0740
 10.1733          -1.0830
 10.1750          -0.8880
 10.1767          -1.0280
 10.1783          -1.0200
 10.1800          -1.1250
 10.1817          -1.4880
 10.1833          -1.4840
 10.1850          -1.5400
 10.1867          -1.1410
 10.1883          -1.0160
 10.1900          -1.0800
 10.1917          -1.1300
 10.1933          -1.3970
 10.1950          -1.3020
 10.1967          -1.1420
 10.1983          -1.0010
 10.2000          -1.0560
 10.2017          -1.3000
 10.2033          -1.3180
 10.2050          -1.5230
 10.2067          -1.3770
 10.2083          -1.3540
 10.2100          -1.1430
 10.2117          -1.0430
 10.2133          -1.2840
 10.2150          -1.2450
 10.2167          -1.3590
 10.2183          -1.1240
 10.2200          -0.9750
 10.2217          -1.0540
 10.2233          -1.1480
 10.2250          -1.5110
 10.2267          -1.5080
 10.2283          -1.4930
 10.2300          -1.3590
 10.2317          -1.2010
 10.2333          -1.1140
 10.2350          -0.9520
 10.2367          -1.0790
 10.2383          -0.9970
 10.2400          -1.2900
 10.2417          -1.2550
 10.2433          -1.3280
 10.2450          -1.2470
 10.2467          -1.2000
 10.2483          -1.3340
 10.2500          -1.3890
 10.2517          -1.5030
 10.2533          -1.4220
 10.2550          -1.1920
 10.2567          -1.2110
 10.2583          -1.0780
 10.2600          -1.1860
 10.2617          -1.2620
 10.2633          -1.3830
 10.2650          -1.3290
 10.2667          -0.9890
 10.2683          -1.0570
 10.2700          -0.9420
 10.2717          -1.2940
 10.2733          -1.3080
 10.2750          -1.2520
 10.2767          -1.1380
 10.2783          -0.8010
 10.2800          -0.9820
 10.2817          -1.0040
 10.2833          -1.2590
 10.2850          -1.3010
 10.2867          -1.1630
 10.2883          -1.1520
 10.2900          -0.9710
 10.2917          -1.3180
 10.2933          -1.2980
 10.2950          -1.4150
 10.2967          -1.3420
 10.2983          -1.1680
 10.3000          -1.1820
 10.3017          -0.9450
 10.3033          -0.9420
 10.3050          -0.9490
 10.3067          -1.0940
 10.3083          -1.3790
 10.3100          -1.3820
 10.3117          -1.4480
 10.3133          -1.1230
 10.3150          -1.0480
 10.3167          -0.9670
 10.3183          -0.9970
 10.3200          -1.1180
 10.3217          -1.1880
 10.3233          -1.1930
 10.3250          -0.9950
 10.3267          -1.0870
 10.3283          -1.1590
 10.3300          -1.2590
 10.3317          -1.4580
 10.3333          -1.3070
 10.3350          -1.2850
 10.3367          -1.0250
 10.3383          -1.0130
 10.3400          -1.2370
 10.3417          -1.3540
 10.3433          -1.5310
 10.3450          -1.1740
 10.3467          -1.1700
 10.3483          -0.9740
 10.3500          -1.1140
 10.3517          -1.4580
 10.3533          -1.3630
 10.3550          -1.5230
 10.3567          -1.2460
 10.3583          -1.1670
 10.3600          -1.2650
 10.3617          -1.2660
 10.3633          -1.4300
 10.3650          -1.3600
 10.3667          -1.3610
 10.3683          -1.1810
 10.3700          -1.2250
 10.3717          -1.0470
 10.3733          -1.0750
 10.3750          -1.4530
 10.3767          -1.3960
 10.3783          -1.5520
 10.3800          -1.3340
 10.3817          -1.1670
 10.3833          -1.1120
 10.3850          -1.1070
 10.3867          -1.1640
 10.3883          -1.0070
 10.3900          -1.2810
 10.3917          -1.1680
 10.3933          -1.2400
 10.3950          -1.2970
 10.3967          -1.2660
 10.3983          -1.5930
 10.4000          -1.5120
 10.4017          -1.5060
 10.4033          -1.3300
 10.4050          -1.1460
 10.4067          -1.1920
 10.4083          -1.1700
 10.4100          -1.4240
 10.4117          -1.2970
 10.4133          -1.2350
 10.4150          -1.2040
 10.4167          -1.0520
 10.4183          -1.2040
 10.4200          -1.1980
 10.4217          -1.4340
 10.4233          -1.4560
 10.4250          -1.3310
 10.4267          -1.2500
 10.4283          -0.9990
 10.4300          -1.1490
 10.4317          -1.1740
 10.4333          -1.3320
 10.4350          -1.4120
 10.4367          -1.2750
 10.4383          -1.2900
 10.4400          -1.1650
 10.4417          -1.4470
 10.4433          -1.4330
 10.4450          -1.4470
 10.4467          -1.2820
 10.4483          -0.7620
 10.4500          -0.8200
 10.4517          -0.8530
 10.4533          -1.1610
 10.4550          -1.3120
 10.4567          -1.5890
 10.4583          -1.5610
 10.4600          -1.3240
 10.4617          -1.2670
 10.4633          -0.7720
 10.4650          -0.9860
 10.4667          -1.1270
 10.4683          -1.4520
 10.4700          -1.4410
 10.4717          -1.2660
 10.4733          -1.1640
 10.4750          -0.9360
 10.4767          -1.1880
 10.4783          -1.1630
 10.4800          -1.4200
 10.4817          -1.4550
 10.4833          -1.0730
 10.4850          -1.1370
 10.4867          -1.0560
 10.4883          -1.1860
 10.4900          -1.3300
 10.4917          -1.2270
 10.4933          -1.2000
 10.4950          -0.9490
 10.4967          -1.0530
 10.4983          -1.0780
 10.5000          -1.2980
 10.5017          -1.4340
 10.5033          -1.3650
 10.5050          -1.3730
 10.5067          -0.9120
 10.5083          -0.9580
 10.5100          -1.0420
 10.5117          -1.1170
 10.5133          -1.2640
 10.5150          -1.1400
 10.5167          -1.2090
 10.5183          -0.9930
 10.5200          -1.1940
 10.5217          -1.3680
 10.5233          -1.1930
 10.5250          -1.4130
 10.5267          -1.1850
 10.5283          -1.0600
 10.5300          -1.1410
 10.5317          -1.0200
 10.5333          -1.0540
 10.5350          -1.2400
 10.5367          -1.2660
 10.5383          -1.2970
 10.5400          -1.4320
 10.5417          -1.0080
 10.5433          -1.0310
 10.5450          -1.1300
 10.5467          -1.1650
 10.5483          -1.5140
 10.5500          -1.3830
 10.5517          -1.4440
 10.5533          -1.0420
 10.5550          -1.1060
 10.5567          -1.2050
 10.5583          -1.1510
 10.5600          -1.3990
 10.5617          -1.1810
 10.5633          -1.2130
 10.5650          -1.0870
 10.5667          -1.0540
 10.5683          -1.3550
 10.5700          -1.4110
 10.5717          -1.5720
 10.5733          -1.3330
 10.5750          -1.1110
 10.5767          -0.9930
 10.5783          -0.9000
 10.5800          -1.3320
 10.5817          -1.2510
 10.5833          -1.3470
 10.5850          -1.2660
 10.5867          -1.1030
 10.5883          -1.3000
 10.5900          -1.3290
 10.5917          -1.5880
 10.5933          -1.4760
 10.5950          -1.1910
 10.5967          -1.0190
 10.5983          -0.8270
 10.6000          -1.0360
 10.6017          -1.0640
 10.6033          -1.3170
 10.6050          -1.3720
 10.6067          -1.2080
 10.6083          -1.2250
 10.6100          -1.0320
 10.6117          -1.0540
 10.6133          -1.0110
 10.6150          -1.3270
 10.6167          -1.3330
 10.6183          -1.4180
 10.6200          -1.3310
 10.6217          -0.8560
 10.6233          -0.9060
 10.6250          -0.8850
 10.6267          -1.3890
 10.6283          -1.5090
 10.6300          -1.5490
 10.6317          -1.4600
 10.6333          -1.0740
 10.6350          -1.1280
 10.6367          -0.9470
 10.6383          -1.2690
 10.6400          -1.2750
 10.6417          -1.1200
 10.6433          -1.1700
 10.6450          -0.8830
 10.6467          -1.1290
 10.6483          -1.2930
 10.6500          -1.4670
 10.6517          -1.5530
 10.6533          -1.3570
 10.6550          -1.2040
 10.6567          -0.9910
 10.6583          -1.0760
 10.6600          -1.0710
 10.6617          -1.2620
 10.6633          -1.3040
 10.6650          -0.9780
 10.6667          -1.1230
 10.6683          -1.1540
 10.6700          -1.3730
 10.6717          -1.5440
 10.6733          -1.2670
 10.6750          -1.2380
 10.6767          -0.9070
 10.6783          -0.9610
 10.6800          -1.1590
 10.6817          -1.1390
 10.6833          -1.3140
 10.6850          -1.1750
 10.6867          -1.1180
 10.6883          -1.0200
 10.6900          -0.9910
 10.6917          -1.0760
 10.6933          -1.1450
 10.6950          -1.4060
 10.6967          -1.3490
 10.6983          -1.5780
 10.7000          -1.1310
 10.7017          -1.0940
 10.7033          -0.9530
 10.7050          -0.9790
 10.7067          -1.3350
 10.7083          -1.2960
 10.7100          -1.4010
 10.7117          -1.1070
 10.7133          -1.1380
 10.7150          -1.2610
 10.7167          -1.3200
 10.7183          -1.5030
 10.7200          -1.3270
 10.7217          -1.2090
 10.7233          -1.0360
 10.7250          -0.9740
 10.7267          -1.0550
 10.7283          -1.0970
 10.7300          -1.3140
 10.7317          -1.1690
 10.7333          -1.0920
 10.7350          -1.0940
 10.7367          -1.1250
 10.7383          -1.4050
 10.7400          -1.4040
 10.7417          -1.4270
 10.7433          -1.2130
 10.7450          -1.0520
 10.7467          -0.9850
 10.7483          -0.9420
 10.7500          -1.2740
 10.7517          -1.4720
 10.7533          -1.4030
 10.7550          -1.4190
 10.7567          -1.1970
 10.7583          -1.1270
 10.7600          -1.1460
 10.7617          -1.1660
 10.7633          -1.2160
 10.7650          -1.2720
 10.7667          -1.3010
 10.7683          -1.1090
 10.7700          -1.1530
 10.7717          -1.0850
 10.7733          -1.3520
 10.7750          -1.3220
 10.7767          -1.4930
 10.7783          -1.4290
 10.7800          -1.1280
 10.7817          -1.1660
 10.7833          -0.9610
 10.7850          -1.2520
 10.7867          -1.2940
 10.7883          -1.2880
 10.7900          -1.2190
 10.7917          -1.0010
 10.7933          -1.1240
 10.7950          -1.1610
 10.7967          -1.3780
 10.7983          -1.4440
 10.8000          -1.2300
 10.8017          -1.2180
 10.8033          -1.0510
 10.8050          -1.2470
 10.8067          -1.3470
 10.8083          -1.4090
 10.8100          -1.3410
 10.8117          -0.9510
 10.8133          -0.9460
 10.8150          -0.9360
 10.8167          -1.1970
 10.8183          -1.3540
 10.8200          -1.3380
 10.8217          -1.3940
 10.8233          -1.0330
 10.8250          -1.0000
 10.8267          -0.9770
 10.8283          -0.9980
 10.8300          -1.2250
 10.8317          -1.2700
 10.8333          -1.3100
 10.8350          -1.2610
 10.8367          -1.2770
 10.8383          -1.0440
 10.8400          -1.1280
 10.8417          -1.2770
 10.8433          -1.3000
 10.8450          -1.4170
 10.8467          -1.2370
 10.8483          -1.1320
 10.8500          -1.0090
 10.8517          -1.0790
 10.8533          -1.2410
 10.8550          -1.2380
 10.8567          -1.3440
 10.8583          -1.1540
 10.8600          -1.0930
 10.8617          -1.0780
 10.8633          -1.2240
 10.8650          -1.3770
 10.8667          -1.3180
 10.8683          -1.3370
 10.8700          -1.0150
 10.8717          -0.9460
 10.8733          -1.0570
 10.8750          -1.0360
 10.8767          -1.3910
 10.8783          -1.2100
 10.8800          -1.2300
 10.8817          -1.1080
 10.8833          -1.0890
 10.8850          -1.3220
 10.8867          -1.2870
 10.8883          -1.4580
 10.8900          -1.2350
 10.8917          -1.2030
 10.8933          -0.9430
 10.8950          -0.9690
 10.8967          -1.2980
 10.8983          -1.2780
 10.9000          -1.3490
 10.9017          -1.1220
 10.9033          -0.9230
 10.9050          -1.0090
 10.9067          -1.0770
 10.9083          -1.4510
 10.9100          -1.4340
 10.9117          -1.4240
 10.9133          -1.2380
 10.9150          -0.9990
 10.9167          -1.1150
 10.9183          -1.0740
 10.9200          -1.2960
 10.9217          -1.3750
 10.9233          -1.4280
 10.9250          -1.4240
 10.9267          -1.3200
 10.9283          -1.2570
 10.9300          -1.0270
 10.9317          -1.4070
 10.9333          -1.3300
 10.9350          -1.5290
 10.9367          -1.4560
 10.9383          -1.1970
 10.9400          -1.1490
 10.9417          -0.9690
 10.9433          -1.2790
 10.9450          -1.2350
 10.9467          -1.4550
 10.9483          -1.5270
 10.9500          -1.1050
 10.9517          -1.2050
 10.9533          -1.1650
 10.9550          -1.4230
 10.9567          -1.4940
 10.9583          -1.3060
 10.9600          -1.1210
 10.9617          -0.8330
 10.9633          -1.0680
 10.9650          -1.1230
 10.9667          -1.4020
 10.9683          -1.4800
 10.9700          -1.3200
 10.9717          -1.3040
 10.9733          -1.1160
 10.9750          -1.1910
 10.9767          -1.1440
 10.9783          -1.1810
 10.9800          -1.1920
 10.9817          -0.9840
 10.9833          -1.1090
 10.9850          -1.0890
 10.9867          -1.2070
 10.9883          -1.3730
 10.9900          -1.3660
 10.9917          -1.5120
 10.9933          -1.3870
 10.9950          -1.3270
 10.9967          -1.2420
 10.9983          -1.2820
 11.0000          -1.3160
 11.0017          -1.1390
 11.0033          -1.1450
 11.0050          -0.9940
 11.0067          -0.9110
 11.0083          -0.9470
 11.0100          -0.9840
 11.0117          -1.0620
 11.0133          -1.1820
 11.0150          -1.3930
 11.0167          -1.2200
 11.0183          -1.2550
 11.0200          -1.0370
 11.0217          -1.0650
 11.0233          -1.3370
 11.0250          -1.3980
 11.0267          -1.4280
 11.0283          -1.1390
 11.0300          -1.0660
 11.0317          -0.9150
 11.0333          -1.0090
 11.0350          -1.4160
 11.0367          -1.2650
 11.0383          -1.3820
 11.0400          -1.1380
 11.0417          -1.0710
 11.0433          -1.0500
 11.0450          -1.1350
 11.0467          -1.4010
 11.0483          -1.3080
 11.0500          -1.4110
 11.0517          -1.0410
 11.0533          -1.0120
 11.0550          -1.1870
 11.0567          -1.2130
 11.0583          -1.4330
 11.0600          -1.2200
 11.0617          -1.0900
 11.0633          -0.9630
 11.0650          -0.8850
 11.0667          -1.1450
 11.0683          -1.1440
 11.0700          -1.3470
 11.0717          -1.1320
 11.0733          -1.0560
 11.0750          -1.0990
 11.0767          -1.0960
 11.0783          -1.5580
 11.0800          -1.4470
 11.0817          -1.3590
 11.0833          -1.1910
 11.0850          -0.9270
 11.0867          -1.0030
 11.0883          -0.9860
 11.0900          -1.2060
 11.0917          -1.2190
 11.0933          -1.1430
 11.0950          -1.0890
 11.0967          -1.0130
 11.0983          -1.2820
 11.1000          -1.2750
 11.1017          -1.5540
 11.1033          -1.4490
 11.1050          -1.0500
 11.1067          -0.8670
 11.1083          -0.6190
 11.1100          -0.7320
 11.1117          -0.6070
 11.1133          -1.0300
 11.1150          -1.0840
 11.1167          -1.4400
 11.1183          -1.4470
 11.1200          -1.1790
 11.1217          -1.1620
 11.1233          -0.8910
 11.1250          -1.2430
 11.1267          -1.2870
 11.1283          -1.3260
 11.1300          -1.1520
 11.1317          -0.8720
 11.1333          -1.0280
 11.1350          -1.0400
 11.1367          -1.3860
 11.1383          -1.4440
 11.1400          -1.2750
 11.1417          -1.3920
 11.1433          -1.0820
 11.1450          -1.2520
 11.1467          -1.2670
 11.1483          -1.1780
 11.1500          -1.2360
 11.1517          -1.0380
 11.1533          -0.8850
 11.1550          -0.8330
 11.1567          -1.1420
 11.1583          -1.2040
 11.1600          -1.5220
 11.1617          -1.4840
 11.1633          -1.2060
 11.1650          -1.2290
 11.1667          -1.1630
 11.1683          -1.1380
 11.1700          -1.2150
 11.1717          -1.3490
 11.1733          -1.3000
 11.1750          -1.0520
 11.1767          -1.1770
 11.1783          -1.0450
 11.1800          -1.1390
 11.1817          -1.4060
 11.1833          -1.3270
 11.1850          -1.2940
 11.1867          -1.1660
 11.1883          -1.2110
 11.1900          -1.1560
 11.1917          -1.3420
 11.1933          -1.3230
 11.1950          -1.0960
 11.1967          -1.1270
 11.1983          -0.9300
 11.2000          -1.1520
 11.2017          -1.4010
 11.2033          -1.4230
 11.2050          -1.5270
 11.2067          -1.1580
 11.2083          -1.0560
 11.2100          -0.9860
 11.2117          -0.9450
 11.2133          -1.2770
 11.2150          -1.1410
 11.2167          -1.1440
 11.2183          -1.0710
 11.2200          -1.0910
 11.2217          -1.0670
 11.2233          -1.1290
 11.2250          -0.9990
 11.2267          -1.0940
 11.2283          -1.4190
 11.2300          -1.3090
 11.2317          -1.4520
 11.2333          -1.0350
 11.2350          -0.8610
 11.2367          -0.7640
 11.2383          -0.7870
 11.2400          -1.0580
 11.2417          -1.1740
 11.2433          -1.4590
 11.2450          -1.2360
 11.2467          -1.2420
 11.2483          -1.2070
 11.2500          -1.1210
 11.2517          -1.3090
 11.2533          -1.2850
 11.2550          -1.1020
 11.2567          -0.8440
 11.2583          -0.7200
 11.2600          -0.8700
 11.2617          -0.9040
 11.2633          -1.1470
 11.2650          -0.9770
 11.2667          -0.8260
 11.2683          -0.7560
 11.2700          -0.7430
 11.2717          -0.9900
 11.2733          -0.9110
 11.2750          -1.0590
 11.2767          -0.8260
 11.2783          -0.7110
 11.2800          -0.7360
 11.2817          -0.6660
 11.2833          -1.0730
 11.2850          -1.0970
 11.2867          -1.1740
 11.2883          -1.1420
 11.2900          -0.9250
 11.2917          -0.8850
 11.2933          -0.8830
 11.2950          -1.1310
 11.2967          -1.1230
 11.2983          -1.0780
 11.3000          -1.0180
 11.3017          -0.7970
 11.3033          -0.9210
 11.3050          -0.9370
 11.3067          -1.2190
 11.3083          -1.2090
 11.3100          -1.2400
 11.3117          -0.9520
 11.3133          -0.7440
 11.3150          -1.0160
 11.3167          -1.0110
 11.3183          -1.3210
 11.3200          -1.1350
 11.3217          -0.7420
 11.3233          -0.5200
 11.3250          -0.4300
 11.3267          -0.6980
 11.3283          -0.6310
 11.3300          -0.7540
 11.3317          -0.5950
 11.3333          -0.1990
 11.3350          -0.3080
 11.3367          -0.2400
 11.3383          -0.3780
 11.3400          -0.3040
 11.3417          -0.0130
 11.3433           0.0710
 11.3450           0.2920
 11.3467           0.2400
 11.3483           0.2800
 11.3500           0.1300
 11.3517          -0.0300
 11.3533           0.0100
 11.3550           0.1620
 11.3567           0.4680
 11.3583           0.4340
 11.3600           0.4350
 11.3617           0.1080
 11.3633           0.0020
 11.3650          -0.1560
 11.3667          -0.3020
 11.3683          -0.2410
 11.3700          -0.3360
 11.3717          -0.2150
 11.3733          -0.4850
 11.3750          -0.5150
 11.3767          -0.8650
 11.3783          -0.9710
 11.3800          -0.7840
 11.3817          -0.8240
 11.3833          -0.5140
 11.3850          -0.5790
 11.3867          -0.6690
 11.3883          -0.8680
 11.3900          -0.9310
 11.3917          -0.7490
 11.3933          -0.8220
 11.3950          -0.6910
 11.3967          -0.9630
 11.3983          -1.0930
 11.4000          -1.1510
 11.4017          -1.1770
 11.4033          -0.8180
 11.4050          -0.7060
 11.4067          -0.6560
 11.4083          -0.8040
 11.4100          -1.0420
 11.4117          -1.1600
 11.4133          -1.2760
 11.4150          -1.0970
 11.4167          -1.1730
 11.4183          -1.1410
 11.4200          -1.1840
 11.4217          -1.3510
 11.4233          -1.2100
 11.4250          -1.1510
 11.4267          -0.8100
 11.4283          -0.7520
 11.4300          -0.7790
 11.4317          -0.9450
 11.4333          -1.2140
 11.4350          -1.2250
 11.4367          -1.3070
 11.4383          -1.0040
 11.4400          -1.0510
 11.4417          -1.0560
 11.4433          -1.2030
 11.4450          -1.3960
 11.4467          -1.2610
 11.4483          -1.1780
 11.4500          -0.7700
 11.4517          -0.7820
 11.4533          -0.9280
 11.4550          -1.0220
 11.4567          -1.3510
 11.4583          -1.1560
 11.4600          -1.0820
 11.4617          -0.9800
 11.4633          -0.9400
 11.4650          -1.3130
 11.4667          -1.1720
 11.4683          -1.3260
 11.4700          -0.9520
 11.4717          -0.8620
 11.4733          -0.7320
 11.4750          -0.8440
 11.4767          -1.2650
 11.4783          -1.2130
 11.4800          -1.3710
 11.4817          -1.1070
 11.4833          -1.1070
 11.4850          -1.0930
 11.4867          -1.1110
 11.4883          -1.2220
 11.4900          -1.0720
 11.4917          -1.1450
 11.4933          -0.8530
 11.4950          -0.8910
 11.4967          -1.0330
 11.4983          -1.0740
 11.5000          -1.4470
 11.5017          -1.3500
 11.5033          -1.3580
 11.5050          -1.1880
 11.5067          -1.0360
 11.5083          -0.8050
 11.5100          -0.7600
 11.5117          -0.9410
 11.5133          -0.8510
 11.5150          -1.1830
 11.5167          -1.1010
 11.5183          -1.1400
 11.5200          -1.0680
 11.5217          -1.0500
 11.5233          -1.3050
 11.5250          -1.3570
 11.5267          -1.7020
 11.5283          -1.3240
 11.5300          -1.2050
 11.5317          -0.8660
 11.5333          -0.6700
 11.5350          -0.8560
 11.5367          -0.9980
 11.5383          -1.2370
 11.5400          -1.2150
 11.5417          -1.1840
 11.5433          -1.0250
 11.5450          -1.0920
 11.5467          -1.4080
 11.5483          -1.4240
 11.5500          -1.4400
 11.5517          -1.1900
 11.5533          -0.9010
 11.5550          -0.8950
 11.5567          -0.8570
 11.5583          -1.3980
 11.5600          -1.3470
 11.5617          -1.3280
 11.5633          -1.1550
 11.5650          -0.8890
 11.5667          -1.1270
 11.5683          -1.1590
 11.5700          -1.3750
 11.5717          -1.3300
 11.5733          -1.1210
 11.5750          -0.9710
 11.5767          -0.8490
 11.5783          -0.9740
 11.5800          -1.0610
 11.5817          -1.2310
 11.5833          -1.1480
 11.5850          -1.0670
 11.5867          -1.1260
 11.5883          -1.1570
 11.5900          -1.3400
 11.5917          -1.3590
 11.5933          -1.4460
 11.5950          -1.3780
 11.5967          -1.4080
 11.5983          -1.2210
 11.6000          -0.9640
 11.6017          -0.8090
 11.6033          -0.7430
 11.6050          -1.0320
 11.6067          -1.1870
 11.6083          -1.5430
 11.6100          -1.5180
 11.6117          -1.2790
 11.6133          -1.1090
 11.6150          -0.8520
 11.6167          -0.9560
 11.6183          -0.9650
 11.6200          -1.0410
 11.6217          -1.0340
 11.6233          -0.8680
 11.6250          -0.9900
 11.6267          -1.0770
 11.6283          -1.4010
 11.6300          -1.4280
 11.6317          -1.4230
 11.6333          -1.2720
 11.6350          -0.9630
 11.6367          -1.0940
 11.6383          -1.0130
 11.6400          -1.1020
 11.6417          -1.1600
 11.6433          -1.0940
 11.6450          -1.0840
 11.6467          -0.9590
 11.6483          -1.1150
 11.6500          -1.0450
 11.6517          -1.5090
 11.6533          -1.4570
 11.6550          -1.3440
 11.6567          -1.2450
 11.6583          -0.8850
 11.6600          -1.0500
 11.6617          -1.0090
 11.6633          -1.3580
 11.6650          -1.4100
 11.6667          -1.1660
 11.6683          -1.1580
 11.6700          -0.9080
 11.6717          -1.0670
 11.6733          -1.2390
 11.6750          -1.4330
 11.6767          -1.3710
 11.6783          -1.0090
 11.6800          -1.0050
 11.6817          -0.7370
 11.6833          -0.9660
 11.6850          -1.1670
 11.6867          -1.1380
 11.6883          -1.2940
 11.6900          -1.0120
 11.6917          -1.0090
 11.6933          -0.9870
 11.6950          -1.2390
 11.6967          -1.3800
 11.6983          -1.3440
 11.7000          -1.2650
 11.7017          -0.9060
 11.7033          -0.8750
 11.7050          -0.9220
 11.7067          -1.1580
 11.7083          -1.3070
 11.7100          -1.3140
 11.7117          -1.2910
 11.7133          -0.9570
 11.7150          -1.0250
 11.7167          -1.0160
 11.7183          -1.1160
 11.7200          -1.3880
 11.7217          -1.3550
 11.7233          -1.2680
 11.7250          -0.8820
 11.7267          -0.8690
 11.7283          -0.9200
 11.7300          -1.1500
 11.7317          -1.4120
 11.7333          -1.2140
 11.7350          -1.2590
 11.7367          -1.1650
 11.7383          -1.2650
 11.7400          -1.4090
 11.7417          -1.6120
 11.7433          -1.5010
 11.7450          -1.2080
 11.7467          -1.0680
 11.7483          -0.7350
 11.7500          -0.8620
 11.7517          -1.0380
 11.7533          -1.0910
 11.7550          -1.3540
 11.7567          -1.3970
 11.7583          -1.5860
 11.7600          -1.4570
 11.7617          -1.2740
 11.7633          -1.0690
 11.7650          -0.9540
 11.7667          -1.1010
 11.7683          -1.0390
 11.7700          -1.1630
 11.7717          -1.0090
 11.7733          -1.1040
 11.7750          -1.0210
 11.7767          -1.1430
 11.7783          -1.3930
 11.7800          -1.2270
 11.7817          -1.4080
 11.7833          -1.0930
 11.7850          -1.0730
 11.7867          -1.1470
 11.7883          -1.1650
 11.7900          -1.2080
 11.7917          -1.1260
 11.7933          -1.1310
 11.7950          -0.8880
 11.7967          -1.0470
 11.7983          -1.2160
 11.8000          -1.2400
 11.8017          -1.6380
 11.8033          -1.4120
 11.8050          -1.2970
 11.8067          -1.0940
 11.8083          -0.9390
 11.8100          -1.1000
 11.8117          -1.0140
 11.8133          -1.2890
 11.8150          -1.0740
 11.8167          -1.1270
 11.8183          -1.0340
 11.8200          -1.0690
 11.8217          -1.4700
 11.8233          -1.4140
 11.8250          -1.5770
 11.8267          -1.3380
 11.8283          -1.1700
 11.8300          -0.9260
 11.8317          -0.7830
 11.8333          -0.8600
 11.8350          -0.9460
 11.8367          -1.1710
 11.8383          -1.2300
 11.8400          -1.1280
 11.8417          -1.1100
 11.8433          -1.1640
 11.8450          -1.5120
 11.8467          -1.5320
 11.8483          -1.5120
 11.8500          -1.3100
 11.8517          -0.9720
 11.8533          -0.9540
 11.8550          -0.8790
 11.8567          -1.1580
 11.8583          -1.2370
 11.8600          -1.2450
 11.8617          -1.1400
 11.8633          -1.0880
 11.8650          -1.2290
 11.8667          -1.3480
 11.8683          -1.5880
 11.8700          -1.4290
 11.8717          -1.2330
 11.8733          -1.0380
 11.8750          -0.8910
 11.8767          -1.0850
 11.8783          -1.0600
 11.8800          -1.2600
 11.8817          -1.2870
 11.8833          -1.0390
 11.8850          -1.1620
 11.8867          -1.0990
 11.8883          -1.2460
 11.8900          -1.1530
 11.8917          -1.1620
 11.8933          -1.0490
 11.8950          -1.0170
 11.8967          -1.0200
 11.8983          -0.8480
 11.9000          -1.1380
 11.9017          -1.2120
 11.9033          -1.2920
 11.9050          -1.2590
 11.9067          -0.9670
 11.9083          -1.0760
 11.9100          -0.9440
 11.9117          -1.3520
 11.9133          -1.4220
 11.9150          -1.2590
 11.9167          -1.1740
 11.9183          -0.5980
 11.9200          -0.7860
 11.9217          -0.8790
 11.9233          -1.2040
 11.9250          -1.3150
 11.9267          -1.1930
 11.9283          -1.2280
 11.9300          -0.9230
 11.9317          -1.2370
 11.9333          -1.1940
 11.9350          -1.2320
 11.9367          -1.3660
 11.9383          -1.0190
 11.9400          -1.1420
 11.9417          -0.8660
 11.9433          -0.8970
 11.9450          -1.0430
 11.9467          -1.3000
 11.9483          -1.4170
 11.9500          -1.3420
 11.9517          -1.3220
 11.9533          -1.1240
 11.9550          -1.2880
 11.9567          -1.3240
 11.9583          -1.2080
 11.9600          -1.2700
 11.9617          -1.2880
 11.9633          -1.2260
 11.9650          -1.0250
 11.9667          -1.0460
 11.9683          -0.9710
 11.9700          -1.2330
 11.9717          -1.3670
 11.9733          -1.3780
 11.9750          -1.4380
 11.9767          -1.1940
 11.9783          -1.1920
 11.9800          -1.0430
 11.9817          -1.0550
 11.9833          -1.1620
 11.9850          -1.0670
 11.9867          -1.1750
 11.9883          -0.9670
 11.9900          -1.0120
 11.9917          -1.1770
 11.9933          -1.3950
 11.9950          -1.5740
 11.9967          -1.5070
 11.9983          -1.3780
 12.0000          -1.0500
 12.0017          -1.0060
 12.0033          -1.1560
 12.0050          -1.1620
 12.0067          -1.3390
 12.0083          -1.0640
 12.0100          -1.0680
 12.0117          -1.0380
 12.0133          -1.1820
 12.0150          -1.5610
 12.0167          -1.5630
 12.0183          -1.6520
 12.0200          -1.3380
 12.0217          -1.2700
 12.0233          -1.0460
 12.0250          -1.0510
 12.0267          -1.1920
 12.0283          -1.2250
 12.0300          -1.4380
 12.0317          -1.2270
 12.0333          -1.1980
 12.0350          -1.1520
 12.0367          -1.1410
 12.0383          -1.3270
 12.0400          -1.3690
 12.0417          -1.3670
 12.0433          -1.2000
 12.0450          -1.0690
 12.0467          -0.9550
 12.0483          -0.9800
 12.0500          -1.2650
 12.0517          -1.2420
 12.0533          -1.3450
 12.0550          -1.0970
 12.0567          -1.0700
 12.0583          -1.3530
 12.0600          -1.3210
 12.0617          -1.7160
 12.0633          -1.5380
 12.0650          -1.3290
 12.0667          -0.9570
 12.0683          -0.8790
 12.0700          -0.7960
 12.0717          -0.9380
 12.0733          -1.1620
 12.0750          -1.0170
 12.0767          -1.1960
 12.0783          -1.0940
 12.0800          -1.1980
 12.0817          -1.4680
 12.0833          -1.5180
 12.0850          -1.4960
 12.0867          -1.2440
 12.0883          -0.9250
 12.0900          -0.7900
 12.0917          -0.7730
 12.0933          -1.2860
 12.0950          -1.4220
 12.0967          -1.5290
 12.0983          -1.4020
 12.1000          -1.1480
 12.1017          -1.2570
 12.1033          -1.3030
 12.1050          -1.3730
 12.1067          -1.3890
 12.1083          -1.3100
 12.1100          -1.1590
 12.1117          -1.2680
 12.1133          -1.0570
 12.1150          -0.9440
 12.1167          -1.1050
 12.1183          -1.0510
 12.1200          -1.3810
 12.1217          -1.4050
 12.1233          -1.3150
 12.1250          -1.3320
 12.1267          -1.1120
 12.1283          -1.1640
 12.1300          -1.1690
 12.1317          -1.3660
 12.1333          -1.4480
 12.1350          -1.3350
 12.1367          -1.2090
 12.1383          -0.9680
 12.1400          -1.1250
 12.1417          -1.1870
 12.1433          -1.5840
 12.1450          -1.6310
 12.1467          -1.3880
 12.1483          -1.1720
 12.1500          -0.9220
 12.1517          -1.0660
 12.1533          -1.0370
 12.1550          -1.3790
 12.1567          -1.2150
 12.1583          -1.1190
 12.1600          -1.2070
 12.1617          -1.0950
 12.1633          -1.3990
 12.1650          -1.4230
 12.1667          -1.4630
 12.1683          -1.3460
 12.1700          -0.9400
 12.1717          -0.9770
 12.1733          -0.8720
 12.1750          -1.1590
